 Height(km) hr_clear(K/day)  hr_allsky(K/day)  cf (K/day)
 0.00  -0.5360  -0.7860  -0.2277
 0.10  -0.3105  -0.4948  -0.1727
 0.20  -0.0853  -0.2038  -0.1177
 0.30   0.0769   0.0183  -0.0652
 0.40  -0.0214  -0.0349  -0.0148
 0.50  -0.1937  -0.1720   0.0292
 0.60  -0.3848  -0.3370   0.0648
 0.70  -0.5709  -0.5013   0.0957
 0.80  -0.7187  -0.6272   0.1248
 0.90  -0.8180  -0.7007   0.1555
 1.00  -0.8868  -0.7480   0.1807
 1.10  -0.9497  -0.8025   0.1924
 1.20  -1.0050  -0.8746   0.1784
 1.30  -1.0434  -0.9632   0.1301
 1.40  -1.0704  -1.0591   0.0626
 1.50  -1.0902  -1.1479  -0.0055
 1.60  -1.1034  -1.2173  -0.0610
 1.70  -1.1116  -1.2589  -0.0942
 1.80  -1.1182  -1.2664  -0.0948
 1.90  -1.1258  -1.2593  -0.0799
 2.00  -1.1293  -1.2470  -0.0642
 2.10  -1.1254  -1.2269  -0.0485
 2.20  -1.1158  -1.2003  -0.0320
 2.30  -1.1062  -1.1746  -0.0166
 2.40  -1.0982  -1.1515  -0.0020
 2.50  -1.0902  -1.1261   0.0150
 2.60  -1.0832  -1.1029   0.0307
 2.70  -1.0804  -1.0848   0.0459
 2.80  -1.0799  -1.0706   0.0594
 2.90  -1.0791  -1.0613   0.0678
 3.00  -1.0780  -1.0479   0.0799
 3.10  -1.0769  -1.0377   0.0889
 3.20  -1.0812  -1.0324   0.0986
 3.30  -1.0885  -1.0296   0.1090
 3.40  -1.0937  -1.0251   0.1189
 3.50  -1.0958  -1.0184   0.1278
 3.60  -1.0954  -1.0111   0.1345
 3.70  -1.0928  -1.0037   0.1392
 3.80  -1.0889  -0.9966   0.1421
 3.90  -1.0832  -0.9910   0.1417
 4.00  -1.0747  -0.9857   0.1380
 4.10  -1.0660  -0.9783   0.1361
 4.20  -1.0577  -0.9653   0.1404
 4.30  -1.0487  -0.9506   0.1456
 4.40  -1.0461  -0.9431   0.1504
 4.50  -1.0541  -0.9477   0.1541
 4.60  -1.0678  -0.9565   0.1599
 4.70  -1.0825  -0.9641   0.1678
 4.80  -1.0970  -0.9649   0.1823
 4.90  -1.1110  -0.9621   0.1998
 5.00  -1.1230  -0.9504   0.2243
 5.10  -1.1338  -0.9308   0.2554
 5.20  -1.1470  -0.9262   0.2740
 5.30  -1.1622  -0.9443   0.2720
 5.40  -1.1756  -0.9605   0.2699
 5.50  -1.1872  -0.9838   0.2589
 5.60  -1.1966  -1.0033   0.2495
 5.70  -1.2034  -1.0166   0.2433
 5.80  -1.2056  -1.0253   0.2371
 5.90  -1.2116  -1.0363   0.2324
 6.00  -1.2221  -1.0542   0.2257
 6.10  -1.2308  -1.0695   0.2195
 6.20  -1.2372  -1.0838   0.2120
 6.30  -1.2420  -1.0927   0.2082
 6.40  -1.2453  -1.0995   0.2051
 6.50  -1.2465  -1.1029   0.2029
 6.60  -1.2445  -1.1054   0.1986
 6.70  -1.2449  -1.1105   0.1939
 6.80  -1.2509  -1.1211   0.1899
 6.90  -1.2568  -1.1304   0.1869
 7.00  -1.2591  -1.1351   0.1846
 7.10  -1.2594  -1.1367   0.1835
 7.20  -1.2585  -1.1353   0.1840
 7.30  -1.2560  -1.1272   0.1896
 7.40  -1.2518  -1.1176   0.1950
 7.50  -1.2465  -1.1029   0.2042
 7.60  -1.2450  -1.0932   0.2124
 7.70  -1.2513  -1.0928   0.2194
 7.80  -1.2594  -1.0952   0.2258
 7.90  -1.2652  -1.0942   0.2329
 8.00  -1.2705  -1.0943   0.2385
 8.10  -1.2756  -1.0899   0.2484
 8.20  -1.2806  -1.0844   0.2590
 8.30  -1.2848  -1.0854   0.2626
 8.40  -1.2878  -1.0869   0.2644
 8.50  -1.2894  -1.0842   0.2687
 8.60  -1.2931  -1.0821   0.2747
 8.70  -1.3017  -1.0845   0.2813
 8.80  -1.3098  -1.0878   0.2866
 8.90  -1.3149  -1.0876   0.2922
 9.00  -1.3182  -1.0831   0.3001
 9.10  -1.3202  -1.0784   0.3070
 9.20  -1.3218  -1.0732   0.3139
 9.30  -1.3232  -1.0676   0.3211
 9.40  -1.3242  -1.0608   0.3290
 9.50  -1.3242  -1.0512   0.3386
 9.60  -1.3220  -1.0402   0.3474
 9.70  -1.3227  -1.0329   0.3555
 9.80  -1.3295  -1.0351   0.3604
 9.90  -1.3363  -1.0375   0.3652
10.00  -1.3407  -1.0377   0.3696
10.10  -1.3434  -1.0384   0.3718
10.20  -1.3448  -1.0355   0.3762
10.30  -1.3446  -1.0345   0.3770
10.40  -1.3427  -1.0304   0.3791
10.50  -1.3389  -1.0258   0.3798
10.60  -1.3332  -1.0189   0.3806
10.70  -1.3254  -1.0105   0.3810
10.80  -1.3162  -1.0009   0.3809
10.90  -1.3052  -0.9886   0.3817
11.00  -1.2940  -0.9783   0.3803
11.10  -1.2824  -0.9679   0.3786
11.20  -1.2678  -0.9557   0.3754
11.30  -1.2511  -0.9427   0.3710
11.40  -1.2332  -0.9269   0.3680
11.50  -1.2139  -0.9109   0.3639
11.60  -1.1929  -0.8915   0.3612
11.70  -1.1710  -0.8736   0.3562
11.80  -1.1483  -0.8551   0.3509
11.90  -1.1237  -0.8375   0.3427
12.00  -1.0978  -0.8161   0.3370
12.10  -1.0714  -0.7957   0.3297
12.20  -1.0447  -0.7757   0.3218
12.30  -1.0173  -0.7572   0.3116
12.40  -0.9888  -0.7368   0.3022
12.50  -0.9590  -0.7174   0.2903
12.60  -0.9277  -0.6959   0.2789
12.70  -0.8951  -0.6747   0.2659
12.80  -0.8616  -0.6526   0.2529
12.90  -0.8276  -0.6299   0.2398
13.00  -0.7934  -0.6066   0.2272
13.10  -0.7596  -0.5849   0.2134
13.20  -0.7262  -0.5608   0.2024
13.30  -0.6919  -0.5374   0.1898
13.40  -0.6556  -0.5101   0.1788
13.50  -0.6188  -0.4828   0.1675
13.60  -0.5824  -0.4531   0.1590
13.70  -0.5468  -0.4251   0.1496
13.80  -0.5125  -0.3959   0.1427
13.90  -0.4793  -0.3681   0.1357
14.00  -0.4469  -0.3407   0.1291
14.10  -0.4154  -0.3126   0.1239
14.20  -0.3829  -0.2840   0.1185
14.30  -0.3418  -0.2438   0.1155
14.40  -0.2951  -0.1973   0.1130
14.50  -0.2497  -0.1507   0.1119
14.60  -0.2069  -0.1077   0.1099
14.70  -0.1672  -0.0677   0.1083
14.80  -0.1310  -0.0308   0.1071
14.90  -0.0987   0.0008   0.1048
15.00  -0.0707   0.0287   0.1033
15.10  -0.0473   0.0514   0.1014
15.20  -0.0284   0.0681   0.0982
15.30  -0.0153   0.0786   0.0949
15.40  -0.0058   0.0842   0.0905
15.50   0.0062   0.0933   0.0870
15.60   0.0224   0.1073   0.0839
15.70   0.0408   0.1240   0.0813
15.80   0.0600   0.1409   0.0781
15.90   0.0795   0.1581   0.0747
16.00   0.1001   0.1760   0.0709
16.10   0.1216   0.1945   0.0667
16.20   0.1428   0.2119   0.0619
16.30   0.1607   0.2257   0.0569
16.40   0.1751   0.2349   0.0509
16.50   0.1896   0.2443   0.0450
16.60   0.2019   0.2513   0.0390
16.70   0.2054   0.2481   0.0322
16.80   0.2085   0.2448   0.0256
16.90   0.2153   0.2452   0.0189
17.00   0.2185   0.2415   0.0118
17.10   0.2176   0.2342   0.0056
17.20   0.2155   0.2268   0.0004
17.30   0.2133   0.2192  -0.0050
17.40   0.2102   0.2116  -0.0092
17.50   0.2055   0.2025  -0.0134
17.60   0.1998   0.1931  -0.0169
17.70   0.1938   0.1840  -0.0197
17.80   0.1876   0.1747  -0.0225
17.90   0.1811   0.1657  -0.0246
18.00   0.1740   0.1566  -0.0264
18.10   0.1666   0.1474  -0.0278
18.20   0.1590   0.1382  -0.0291
18.30   0.1506   0.1283  -0.0301
18.40   0.1418   0.1182  -0.0311
18.50   0.1351   0.1102  -0.0320
18.60   0.1280   0.1020  -0.0327
18.70   0.1126   0.0854  -0.0331
18.80   0.0925   0.0640  -0.0334
18.90   0.0746   0.0451  -0.0335
19.00   0.0577   0.0272  -0.0336
19.10   0.0406   0.0091  -0.0338
19.20   0.0243  -0.0081  -0.0340
19.30   0.0098  -0.0234  -0.0341
19.40  -0.0031  -0.0371  -0.0343
19.50  -0.0151  -0.0498  -0.0344
19.60  -0.0262  -0.0616  -0.0346
19.70  -0.0360  -0.0721  -0.0349
19.80  -0.0441  -0.0808  -0.0351
19.90  -0.0506  -0.0879  -0.0353
20.00  -0.0558  -0.0936  -0.0356
20.10  -0.0598  -0.0981  -0.0358
20.20  -0.0627  -0.1014  -0.0361
20.30  -0.0645  -0.1035  -0.0363
20.40  -0.0655  -0.1048  -0.0366
20.50  -0.0662  -0.1058  -0.0367
20.60  -0.0665  -0.1062  -0.0368
20.70  -0.0685  -0.1082  -0.0367
20.80  -0.0729  -0.1126  -0.0364
20.90  -0.0780  -0.1175  -0.0361
21.00  -0.0829  -0.1223  -0.0358
21.10  -0.0875  -0.1268  -0.0354
21.20  -0.0918  -0.1309  -0.0351
21.30  -0.0958  -0.1347  -0.0347
21.40  -0.0994  -0.1381  -0.0344
21.50  -0.1027  -0.1412  -0.0340
21.60  -0.1054  -0.1437  -0.0336
21.70  -0.1074  -0.1453  -0.0333
21.80  -0.1083  -0.1459  -0.0329
21.90  -0.1087  -0.1459  -0.0325
22.00  -0.1086  -0.1453  -0.0321
22.10  -0.1078  -0.1439  -0.0316
22.20  -0.1063  -0.1417  -0.0310
22.30  -0.1044  -0.1391  -0.0305
22.40  -0.1023  -0.1362  -0.0299
22.50  -0.0999  -0.1331  -0.0293
22.60  -0.0974  -0.1298  -0.0286
22.70  -0.0948  -0.1264  -0.0280
22.80  -0.0920  -0.1227  -0.0273
22.90  -0.0892  -0.1190  -0.0267
23.00  -0.0863  -0.1153  -0.0259
23.10  -0.0835  -0.1115  -0.0252
23.20  -0.0807  -0.1078  -0.0245
23.30  -0.0780  -0.1041  -0.0237
23.40  -0.0755  -0.1007  -0.0229
23.50  -0.0734  -0.0975  -0.0221
23.60  -0.0718  -0.0950  -0.0212
23.70  -0.0706  -0.0927  -0.0203
23.80  -0.0666  -0.0876  -0.0194
23.90  -0.0598  -0.0794  -0.0184
24.00  -0.0522  -0.0704  -0.0175
24.10  -0.0450  -0.0618  -0.0165
24.20  -0.0382  -0.0535  -0.0154
24.30  -0.0318  -0.0457  -0.0144
24.40  -0.0260  -0.0384  -0.0133
24.50  -0.0204  -0.0314  -0.0121
24.60  -0.0148  -0.0243  -0.0110
24.70  -0.0093  -0.0173  -0.0098
24.80  -0.0041  -0.0105  -0.0086
24.90   0.0006  -0.0043  -0.0074
25.00   0.0046   0.0013  -0.0060
25.10   0.0081   0.0064  -0.0047
25.20   0.0109   0.0109  -0.0033
25.30   0.0132   0.0147  -0.0019
25.40   0.0146   0.0176  -0.0005
25.50   0.0154   0.0199   0.0009
25.60   0.0152   0.0213   0.0023
25.70   0.0143   0.0217   0.0038
25.80   0.0124   0.0212   0.0052
25.90   0.0095   0.0196   0.0066
26.00   0.0053   0.0167   0.0080
26.10  -0.0005   0.0120   0.0094
26.20  -0.0085   0.0051   0.0108
26.30  -0.0158  -0.0011   0.0122
26.40  -0.0167  -0.0006   0.0136
26.50  -0.0096   0.0084   0.0151
26.60   0.0036   0.0237   0.0165
26.70   0.0188   0.0412   0.0180
26.80   0.0338   0.0585   0.0194
26.90   0.0483   0.0751   0.0209
27.00   0.0622   0.0912   0.0223
27.10   0.0755   0.1066   0.0238
27.20   0.0882   0.1214   0.0252
27.30   0.1004   0.1356   0.0267
27.40   0.1119   0.1492   0.0281
27.50   0.1232   0.1624   0.0295
27.60   0.1341   0.1753   0.0309
27.70   0.1449   0.1880   0.0323
27.80   0.1553   0.2003   0.0337
27.90   0.1657   0.2126   0.0351
28.00   0.1761   0.2250   0.0364
28.10   0.1866   0.2374   0.0378
28.20   0.1968   0.2494   0.0392
28.30   0.2064   0.2609   0.0405
28.40   0.2153   0.2715   0.0418
28.50   0.2235   0.2814   0.0431
28.60   0.2310   0.2905   0.0443
28.70   0.2378   0.2988   0.0455
28.80   0.2438   0.3064   0.0467
28.90   0.2492   0.3132   0.0479
29.00   0.2540   0.3194   0.0490
29.10   0.2581   0.3248   0.0501
29.20   0.2616   0.3296   0.0512
29.30   0.2646   0.3337   0.0522
29.40   0.2670   0.3372   0.0532
29.50   0.2688   0.3401   0.0542
29.60   0.2701   0.3425   0.0551
29.70   0.2709   0.3443   0.0560
29.80   0.2713   0.3456   0.0569
29.90   0.2712   0.3463   0.0578
30.00   0.2707   0.3466   0.0586
