     height (km) solar hr (K/day)    IR hr (K/day)   Net hr (K/day)
 0.00  -0.1396  -0.1679  -0.3074
 0.10  -0.1438  -0.0770  -0.2207
 0.20  -0.1479   0.0139  -0.1339
 0.30  -0.1517   0.0975  -0.0542
 0.40  -0.1549   0.1666   0.0117
 0.50  -0.1569   0.2216   0.0647
 0.60  -0.1574   0.2648   0.1073
 0.70  -0.1574   0.3040   0.1467
 0.80  -0.1568   0.3411   0.1843
 0.90  -0.1551   0.3790   0.2240
 1.00  -0.1520   0.4131   0.2611
 1.10  -0.1478   0.4354   0.2876
 1.20  -0.1427   0.4493   0.3065
 1.30  -0.1380   0.4477   0.3097
 1.40  -0.1351   0.4299   0.2947
 1.50  -0.1331   0.4055   0.2723
 1.60  -0.1311   0.3733   0.2421
 1.70  -0.1297   0.3435   0.2138
 1.80  -0.1290   0.3174   0.1885
 1.90  -0.1286   0.2934   0.1649
 2.00  -0.1282   0.2655   0.1372
 2.10  -0.1293   0.2519   0.1226
 2.20  -0.1311   0.2473   0.1161
 2.30  -0.1327   0.2444   0.1117
 2.40  -0.1344   0.2436   0.1091
 2.50  -0.1366   0.2490   0.1124
 2.60  -0.1390   0.2612   0.1222
 2.70  -0.1415   0.2778   0.1363
 2.80  -0.1435   0.2911   0.1476
 2.90  -0.1450   0.2961   0.1512
 3.00  -0.1477   0.3177   0.1701
 3.10  -0.1492   0.3340   0.1849
 3.20  -0.1503   0.3473   0.1971
 3.30  -0.1508   0.3598   0.2090
 3.40  -0.1510   0.3740   0.2229
 3.50  -0.1509   0.3857   0.2350
 3.60  -0.1503   0.3957   0.2455
 3.70  -0.1495   0.4050   0.2555
 3.80  -0.1483   0.4111   0.2628
 3.90  -0.1463   0.4077   0.2615
 4.00  -0.1444   0.4086   0.2642
 4.10  -0.1428   0.4058   0.2631
 4.20  -0.1420   0.4087   0.2666
 4.30  -0.1419   0.4097   0.2678
 4.40  -0.1430   0.4175   0.2744
 4.50  -0.1447   0.4255   0.2808
 4.60  -0.1463   0.4266   0.2804
 4.70  -0.1477   0.4291   0.2814
 4.80  -0.1489   0.4368   0.2879
 4.90  -0.1494   0.4565   0.3070
 5.00  -0.1488   0.5109   0.3620
 5.10  -0.1470   0.5978   0.4507
 5.20  -0.1441   0.6604   0.5163
 5.30  -0.1403   0.6731   0.5328
 5.40  -0.1352   0.6853   0.5501
 5.50  -0.1314   0.6684   0.5369
 5.60  -0.1265   0.6515   0.5249
 5.70  -0.1224   0.6312   0.5089
 5.80  -0.1170   0.6079   0.4909
 5.90  -0.1126   0.5975   0.4849
 6.00  -0.1075   0.5889   0.4814
 6.10  -0.1025   0.5741   0.4716
 6.20  -0.0952   0.5464   0.4512
 6.30  -0.0903   0.5403   0.4499
 6.40  -0.0848   0.5333   0.4484
 6.50  -0.0786   0.5242   0.4456
 6.60  -0.0716   0.5147   0.4431
 6.70  -0.0647   0.5072   0.4425
 6.80  -0.0580   0.4972   0.4393
 6.90  -0.0516   0.4828   0.4312
 7.00  -0.0470   0.4759   0.4288
 7.10  -0.0423   0.4633   0.4210
 7.20  -0.0395   0.4568   0.4173
 7.30  -0.0394   0.4633   0.4239
 7.40  -0.0390   0.4638   0.4248
 7.50  -0.0404   0.4784   0.4380
 7.60  -0.0423   0.4959   0.4537
 7.70  -0.0441   0.5160   0.4720
 7.80  -0.0443   0.5324   0.4881
 7.90  -0.0434   0.5460   0.5026
 8.00  -0.0416   0.5578   0.5161
 8.10  -0.0403   0.5738   0.5335
 8.20  -0.0377   0.5936   0.5560
 8.30  -0.0316   0.5989   0.5674
 8.40  -0.0238   0.6025   0.5788
 8.50  -0.0156   0.6113   0.5958
 8.60  -0.0067   0.6173   0.6106
 8.70   0.0021   0.6226   0.6246
 8.80   0.0109   0.6283   0.6392
 8.90   0.0198   0.6326   0.6524
 9.00   0.0275   0.6423   0.6698
 9.10   0.0356   0.6490   0.6846
 9.20   0.0438   0.6555   0.6993
 9.30   0.0514   0.6663   0.7176
 9.40   0.0594   0.6755   0.7348
 9.50   0.0678   0.6942   0.7620
 9.60   0.0781   0.7061   0.7842
 9.70   0.0902   0.7159   0.8062
 9.80   0.1024   0.7172   0.8198
 9.90   0.1159   0.7110   0.8268
10.00   0.1295   0.7117   0.8411
10.10   0.1449   0.7098   0.8546
10.20   0.1603   0.7137   0.8740
10.30   0.1771   0.7070   0.8841
10.40   0.1940   0.7042   0.8983
10.50   0.2109   0.6988   0.9096
10.60   0.2273   0.6925   0.9198
10.70   0.2427   0.6928   0.9355
10.80   0.2589   0.6884   0.9474
10.90   0.2762   0.6843   0.9605
11.00   0.2951   0.6769   0.9720
11.10   0.3158   0.6596   0.9753
11.20   0.3376   0.6411   0.9788
11.30   0.3597   0.6205   0.9801
11.40   0.3815   0.6113   0.9927
11.50   0.4061   0.5886   0.9946
11.60   0.4313   0.5737   1.0050
11.70   0.4572   0.5500   1.0073
11.80   0.4840   0.5250   1.0089
11.90   0.5105   0.4962   1.0067
12.00   0.5361   0.4720   1.0081
12.10   0.5629   0.4429   1.0058
12.20   0.5899   0.4133   1.0032
12.30   0.6135   0.3868   1.0004
12.40   0.6328   0.3574   0.9900
12.50   0.6473   0.3297   0.9770
12.60   0.6591   0.2940   0.9532
12.70   0.6675   0.2633   0.9308
12.80   0.6746   0.2265   0.9011
12.90   0.6783   0.1948   0.8732
13.00   0.6800   0.1576   0.8375
13.10   0.6794   0.1208   0.8003
13.20   0.6757   0.0876   0.7633
13.30   0.6686   0.0595   0.7282
13.40   0.6583   0.0352   0.6936
13.50   0.6475   0.0046   0.6521
13.60   0.6331  -0.0117   0.6214
13.70   0.6178  -0.0343   0.5837
13.80   0.5996  -0.0471   0.5525
13.90   0.5791  -0.0625   0.5166
14.00   0.5566  -0.0660   0.4906
14.10   0.5336  -0.0695   0.4641
14.20   0.5105  -0.0693   0.4413
14.30   0.4867  -0.0640   0.4228
14.40   0.4640  -0.0578   0.4063
14.50   0.4383  -0.0379   0.4004
14.60   0.4143  -0.0386   0.3758
14.70   0.3898  -0.0371   0.3527
14.80   0.3655  -0.0379   0.3276
14.90   0.3425  -0.0387   0.3037
15.00   0.3179  -0.0339   0.2839
15.10   0.2952  -0.0309   0.2644
15.20   0.2739  -0.0272   0.2468
15.30   0.2535  -0.0280   0.2253
15.40   0.2339  -0.0284   0.2055
15.50   0.2137  -0.0207   0.1933
15.60   0.1944  -0.0154   0.1790
15.70   0.1776  -0.0090   0.1687
15.80   0.1605   0.0022   0.1627
15.90   0.1453   0.0157   0.1610
16.00   0.1337   0.0173   0.1509
16.10   0.1215   0.0186   0.1401
16.20   0.1113   0.0159   0.1272
16.30   0.1008   0.0129   0.1135
16.40   0.0889   0.0125   0.1013
16.50   0.0785   0.0087   0.0871
16.60   0.0694   0.0034   0.0728
16.70   0.0601  -0.0070   0.0532
16.80   0.0528  -0.0136   0.0390
16.90   0.0453  -0.0212   0.0242
17.00   0.0391  -0.0374   0.0016
17.10   0.0334  -0.0454  -0.0121
17.20   0.0276  -0.0493  -0.0216
17.30   0.0235  -0.0551  -0.0315
17.40   0.0205  -0.0586  -0.0382
17.50   0.0178  -0.0615  -0.0438
17.60   0.0156  -0.0644  -0.0487
17.70   0.0141  -0.0685  -0.0543
17.80   0.0129  -0.0738  -0.0608
17.90   0.0115  -0.0758  -0.0643
18.00   0.0107  -0.0783  -0.0676
18.10   0.0102  -0.0816  -0.0714
18.20   0.0102  -0.0860  -0.0757
18.30   0.0106  -0.0897  -0.0790
18.40   0.0113  -0.0932  -0.0820
18.50   0.0118  -0.0967  -0.0848
18.60   0.0125  -0.0998  -0.0872
18.70   0.0131  -0.1021  -0.0889
18.80   0.0137  -0.1039  -0.0903
18.90   0.0141  -0.1057  -0.0915
19.00   0.0148  -0.1076  -0.0927
19.10   0.0154  -0.1095  -0.0940
19.20   0.0162  -0.1114  -0.0953
19.30   0.0168  -0.1133  -0.0964
19.40   0.0176  -0.1153  -0.0977
19.50   0.0184  -0.1174  -0.0989
19.60   0.0193  -0.1196  -0.1003
19.70   0.0202  -0.1219  -0.1016
19.80   0.0213  -0.1243  -0.1030
19.90   0.0222  -0.1266  -0.1044
20.00   0.0233  -0.1291  -0.1058
20.10   0.0244  -0.1316  -0.1072
20.20   0.0256  -0.1342  -0.1086
20.30   0.0267  -0.1367  -0.1099
20.40   0.0280  -0.1393  -0.1113
20.50   0.0294  -0.1419  -0.1125
20.60   0.0306  -0.1440  -0.1133
20.70   0.0316  -0.1449  -0.1134
20.80   0.0323  -0.1454  -0.1129
20.90   0.0332  -0.1456  -0.1123
21.00   0.0340  -0.1458  -0.1117
21.10   0.0349  -0.1461  -0.1112
21.20   0.0357  -0.1465  -0.1108
21.30   0.0367  -0.1469  -0.1102
21.40   0.0376  -0.1475  -0.1098
21.50   0.0386  -0.1482  -0.1095
21.60   0.0398  -0.1488  -0.1091
21.70   0.0409  -0.1497  -0.1088
21.80   0.0420  -0.1507  -0.1086
21.90   0.0433  -0.1517  -0.1084
22.00   0.0446  -0.1528  -0.1082
22.10   0.0460  -0.1537  -0.1077
22.20   0.0475  -0.1547  -0.1072
22.30   0.0490  -0.1558  -0.1068
22.40   0.0505  -0.1570  -0.1064
22.50   0.0522  -0.1583  -0.1060
22.60   0.0538  -0.1595  -0.1056
22.70   0.0557  -0.1609  -0.1052
22.80   0.0575  -0.1622  -0.1048
22.90   0.0594  -0.1637  -0.1043
23.00   0.0613  -0.1652  -0.1039
23.10   0.0632  -0.1668  -0.1035
23.20   0.0653  -0.1684  -0.1030
23.30   0.0674  -0.1699  -0.1025
23.40   0.0696  -0.1716  -0.1020
23.50   0.0718  -0.1732  -0.1014
23.60   0.0741  -0.1749  -0.1007
23.70   0.0764  -0.1764  -0.1001
23.80   0.0786  -0.1780  -0.0993
23.90   0.0811  -0.1796  -0.0985
24.00   0.0835  -0.1812  -0.0977
24.10   0.0859  -0.1827  -0.0968
24.20   0.0883  -0.1841  -0.0957
24.30   0.0908  -0.1855  -0.0947
24.40   0.0933  -0.1869  -0.0936
24.50   0.0958  -0.1882  -0.0923
24.60   0.0983  -0.1894  -0.0911
24.70   0.1007  -0.1905  -0.0898
24.80   0.1032  -0.1915  -0.0883
24.90   0.1057  -0.1923  -0.0865
25.00   0.1081  -0.1929  -0.0847
25.10   0.1106  -0.1933  -0.0828
25.20   0.1129  -0.1937  -0.0807
25.30   0.1154  -0.1941  -0.0787
25.40   0.1178  -0.1944  -0.0765
25.50   0.1200  -0.1945  -0.0744
25.60   0.1225  -0.1947  -0.0722
25.70   0.1248  -0.1947  -0.0699
25.80   0.1269  -0.1948  -0.0677
25.90   0.1292  -0.1947  -0.0655
26.00   0.1314  -0.1945  -0.0632
26.10   0.1336  -0.1944  -0.0608
26.20   0.1357  -0.1942  -0.0584
26.30   0.1379  -0.1941  -0.0562
26.40   0.1401  -0.1940  -0.0538
26.50   0.1425  -0.1941  -0.0515
26.60   0.1450  -0.1942  -0.0492
26.70   0.1475  -0.1943  -0.0470
26.80   0.1498  -0.1944  -0.0445
26.90   0.1522  -0.1944  -0.0422
27.00   0.1547  -0.1944  -0.0399
27.10   0.1570  -0.1944  -0.0375
27.20   0.1594  -0.1943  -0.0350
27.30   0.1616  -0.1943  -0.0326
27.40   0.1639  -0.1940  -0.0302
27.50   0.1660  -0.1938  -0.0279
27.60   0.1681  -0.1935  -0.0254
27.70   0.1701  -0.1932  -0.0230
27.80   0.1722  -0.1928  -0.0206
27.90   0.1742  -0.1922  -0.0181
28.00   0.1761  -0.1916  -0.0155
28.10   0.1778  -0.1909  -0.0130
28.20   0.1796  -0.1900  -0.0105
28.30   0.1813  -0.1893  -0.0080
28.40   0.1829  -0.1885  -0.0056
28.50   0.1845  -0.1877  -0.0031
28.60   0.1861  -0.1867  -0.0007
28.70   0.1873  -0.1857   0.0016
28.80   0.1887  -0.1848   0.0039
28.90   0.1899  -0.1838   0.0062
29.00   0.1914  -0.1828   0.0085
29.10   0.1925  -0.1818   0.0106
29.20   0.1935  -0.1808   0.0129
29.30   0.1946  -0.1797   0.0149
29.40   0.1955  -0.1785   0.0170
29.50   0.1965  -0.1774   0.0191
29.60   0.1973  -0.1763   0.0210
29.70   0.1981  -0.1752   0.0230
29.80   0.1989  -0.1740   0.0249
29.90   0.1996  -0.1729   0.0266
30.00   0.2001  -0.1717   0.0285
