     height (km) solar hr (K/day)    IR hr (K/day)   Net hr (K/day)
 0.00  -0.1003  -0.1517  -0.2521
 0.10  -0.1029  -0.0819  -0.1849
 0.20  -0.1055  -0.0121  -0.1177
 0.30  -0.1081   0.0542  -0.0539
 0.40  -0.1104   0.1131   0.0027
 0.50  -0.1118   0.1608   0.0490
 0.60  -0.1123   0.2002   0.0879
 0.70  -0.1119   0.2346   0.1227
 0.80  -0.1105   0.2649   0.1544
 0.90  -0.1077   0.2945   0.1868
 1.00  -0.1029   0.3180   0.2150
 1.10  -0.0953   0.3220   0.2266
 1.20  -0.0845   0.2959   0.2114
 1.30  -0.0724   0.2342   0.1618
 1.40  -0.0629   0.1619   0.0990
 1.50  -0.0574   0.1035   0.0462
 1.60  -0.0550   0.0620   0.0070
 1.70  -0.0552   0.0377  -0.0176
 1.80  -0.0570   0.0310  -0.0260
 1.90  -0.0602   0.0415  -0.0187
 2.00  -0.0628   0.0502  -0.0127
 2.10  -0.0652   0.0581  -0.0070
 2.20  -0.0676   0.0693   0.0017
 2.30  -0.0699   0.0809   0.0111
 2.40  -0.0722   0.0943   0.0221
 2.50  -0.0745   0.1116   0.0371
 2.60  -0.0766   0.1278   0.0512
 2.70  -0.0784   0.1431   0.0646
 2.80  -0.0799   0.1565   0.0766
 2.90  -0.0810   0.1649   0.0839
 3.00  -0.0823   0.1790   0.0967
 3.10  -0.0830   0.1887   0.1057
 3.20  -0.0836   0.1996   0.1160
 3.30  -0.0839   0.2106   0.1267
 3.40  -0.0839   0.2197   0.1357
 3.50  -0.0836   0.2267   0.1431
 3.60  -0.0831   0.2314   0.1483
 3.70  -0.0826   0.2361   0.1536
 3.80  -0.0817   0.2372   0.1556
 3.90  -0.0804   0.2339   0.1535
 4.00  -0.0791   0.2251   0.1460
 4.10  -0.0783   0.2205   0.1422
 4.20  -0.0782   0.2221   0.1439
 4.30  -0.0784   0.2261   0.1477
 4.40  -0.0788   0.2302   0.1514
 4.50  -0.0792   0.2335   0.1543
 4.60  -0.0795   0.2345   0.1551
 4.70  -0.0795   0.2388   0.1594
 4.80  -0.0793   0.2538   0.1744
 4.90  -0.0787   0.2749   0.1962
 5.00  -0.0772   0.3107   0.2334
 5.10  -0.0749   0.3564   0.2815
 5.20  -0.0715   0.3829   0.3113
 5.30  -0.0675   0.3793   0.3118
 5.40  -0.0627   0.3749   0.3122
 5.50  -0.0578   0.3565   0.2987
 5.60  -0.0530   0.3401   0.2870
 5.70  -0.0489   0.3287   0.2799
 5.80  -0.0442   0.3165   0.2723
 5.90  -0.0396   0.3083   0.2687
 6.00  -0.0354   0.2990   0.2636
 6.10  -0.0309   0.2881   0.2572
 6.20  -0.0262   0.2767   0.2505
 6.30  -0.0223   0.2698   0.2475
 6.40  -0.0184   0.2617   0.2434
 6.50  -0.0142   0.2558   0.2416
 6.60  -0.0098   0.2443   0.2346
 6.70  -0.0057   0.2333   0.2276
 6.80  -0.0028   0.2272   0.2244
 6.90   0.0000   0.2196   0.2196
 7.00   0.0015   0.2158   0.2173
 7.10   0.0028   0.2121   0.2149
 7.20   0.0037   0.2112   0.2148
 7.30   0.0033   0.2189   0.2221
 7.40   0.0030   0.2250   0.2280
 7.50   0.0021   0.2378   0.2399
 7.60   0.0016   0.2500   0.2516
 7.70   0.0013   0.2614   0.2627
 7.80   0.0013   0.2705   0.2718
 7.90   0.0017   0.2797   0.2814
 8.00   0.0032   0.2867   0.2899
 8.10   0.0044   0.2979   0.3023
 8.20   0.0068   0.3078   0.3147
 8.30   0.0112   0.3092   0.3204
 8.40   0.0161   0.3069   0.3230
 8.50   0.0205   0.3099   0.3305
 8.60   0.0250   0.3145   0.3395
 8.70   0.0297   0.3179   0.3476
 8.80   0.0345   0.3209   0.3554
 8.90   0.0391   0.3246   0.3636
 9.00   0.0432   0.3316   0.3748
 9.10   0.0478   0.3377   0.3854
 9.20   0.0524   0.3436   0.3960
 9.30   0.0575   0.3490   0.4065
 9.40   0.0626   0.3562   0.4188
 9.50   0.0682   0.3646   0.4329
 9.60   0.0747   0.3709   0.4456
 9.70   0.0813   0.3776   0.4590
 9.80   0.0889   0.3778   0.4667
 9.90   0.0970   0.3778   0.4748
10.00   0.1055   0.3781   0.4837
10.10   0.1151   0.3750   0.4901
10.20   0.1245   0.3749   0.4994
10.30   0.1348   0.3690   0.5037
10.40   0.1449   0.3650   0.5098
10.50   0.1552   0.3588   0.5140
10.60   0.1657   0.3525   0.5182
10.70   0.1763   0.3463   0.5226
10.80   0.1874   0.3387   0.5261
10.90   0.1986   0.3325   0.5311
11.00   0.2104   0.3223   0.5327
11.10   0.2227   0.3110   0.5337
11.20   0.2356   0.2972   0.5329
11.30   0.2490   0.2817   0.5307
11.40   0.2625   0.2681   0.5306
11.50   0.2762   0.2510   0.5273
11.60   0.2901   0.2363   0.5264
11.70   0.3040   0.2176   0.5215
11.80   0.3176   0.1987   0.5164
11.90   0.3307   0.1759   0.5067
12.00   0.3433   0.1565   0.4998
12.10   0.3554   0.1348   0.4902
12.20   0.3662   0.1141   0.4803
12.30   0.3746   0.0922   0.4668
12.40   0.3794   0.0744   0.4538
12.50   0.3820   0.0547   0.4367
12.60   0.3824   0.0378   0.4201
12.70   0.3813   0.0199   0.4012
12.80   0.3784   0.0037   0.3821
12.90   0.3743  -0.0114   0.3630
13.00   0.3687  -0.0244   0.3443
13.10   0.3618  -0.0381   0.3236
13.20   0.3530  -0.0461   0.3069
13.30   0.3433  -0.0552   0.2881
13.40   0.3322  -0.0603   0.2719
13.50   0.3205  -0.0652   0.2553
13.60   0.3077  -0.0646   0.2431
13.70   0.2945  -0.0652   0.2293
13.80   0.2809  -0.0612   0.2197
13.90   0.2668  -0.0575   0.2093
14.00   0.2527  -0.0525   0.2002
14.10   0.2383  -0.0447   0.1937
14.20   0.2251  -0.0389   0.1862
14.30   0.2115  -0.0280   0.1835
14.40   0.1983  -0.0167   0.1815
14.50   0.1851  -0.0037   0.1814
14.60   0.1722  -0.0000   0.1722
14.70   0.1598   0.0031   0.1629
14.80   0.1473   0.0069   0.1542
14.90   0.1361   0.0085   0.1446
15.00   0.1248   0.0114   0.1362
15.10   0.1145   0.0132   0.1277
15.20   0.1052   0.0135   0.1188
15.30   0.0960   0.0137   0.1097
15.40   0.0878   0.0124   0.1001
15.50   0.0800   0.0124   0.0924
15.60   0.0723   0.0132   0.0855
15.70   0.0657   0.0145   0.0802
15.80   0.0592   0.0162   0.0754
15.90   0.0533   0.0178   0.0710
16.00   0.0485   0.0174   0.0660
16.10   0.0438   0.0167   0.0605
16.20   0.0399   0.0147   0.0545
16.30   0.0361   0.0122   0.0483
16.40   0.0323   0.0092   0.0415
16.50   0.0289   0.0056   0.0345
16.60   0.0260   0.0018   0.0277
16.70   0.0228  -0.0025   0.0203
16.80   0.0203  -0.0059   0.0144
16.90   0.0178  -0.0096   0.0082
17.00   0.0155  -0.0143   0.0012
17.10   0.0135  -0.0180  -0.0045
17.20   0.0115  -0.0207  -0.0092
17.30   0.0100  -0.0244  -0.0144
17.40   0.0089  -0.0273  -0.0184
17.50   0.0079  -0.0303  -0.0223
17.60   0.0073  -0.0329  -0.0257
17.70   0.0068  -0.0353  -0.0285
17.80   0.0066  -0.0378  -0.0312
17.90   0.0064  -0.0397  -0.0333
18.00   0.0065  -0.0416  -0.0352
18.10   0.0066  -0.0434  -0.0368
18.20   0.0069  -0.0453  -0.0384
18.30   0.0072  -0.0470  -0.0398
18.40   0.0076  -0.0487  -0.0411
18.50   0.0081  -0.0504  -0.0423
18.60   0.0086  -0.0520  -0.0434
18.70   0.0089  -0.0530  -0.0441
18.80   0.0092  -0.0538  -0.0446
18.90   0.0096  -0.0545  -0.0449
19.00   0.0100  -0.0553  -0.0453
19.10   0.0104  -0.0561  -0.0457
19.20   0.0108  -0.0570  -0.0462
19.30   0.0113  -0.0578  -0.0466
19.40   0.0117  -0.0588  -0.0470
19.50   0.0123  -0.0598  -0.0475
19.60   0.0129  -0.0609  -0.0480
19.70   0.0135  -0.0621  -0.0486
19.80   0.0141  -0.0633  -0.0492
19.90   0.0149  -0.0646  -0.0498
20.00   0.0156  -0.0660  -0.0504
20.10   0.0164  -0.0673  -0.0510
20.20   0.0172  -0.0688  -0.0516
20.30   0.0181  -0.0703  -0.0522
20.40   0.0190  -0.0718  -0.0528
20.50   0.0200  -0.0734  -0.0534
20.60   0.0209  -0.0747  -0.0538
20.70   0.0217  -0.0755  -0.0538
20.80   0.0224  -0.0760  -0.0537
20.90   0.0230  -0.0765  -0.0534
21.00   0.0237  -0.0770  -0.0532
21.10   0.0245  -0.0774  -0.0530
21.20   0.0252  -0.0780  -0.0527
21.30   0.0260  -0.0785  -0.0525
21.40   0.0268  -0.0791  -0.0522
21.50   0.0276  -0.0797  -0.0520
21.60   0.0285  -0.0803  -0.0518
21.70   0.0295  -0.0810  -0.0515
21.80   0.0304  -0.0816  -0.0512
21.90   0.0314  -0.0824  -0.0509
22.00   0.0325  -0.0831  -0.0506
22.10   0.0336  -0.0838  -0.0502
22.20   0.0347  -0.0844  -0.0497
22.30   0.0359  -0.0851  -0.0492
22.40   0.0371  -0.0858  -0.0486
22.50   0.0384  -0.0865  -0.0481
22.60   0.0397  -0.0872  -0.0475
22.70   0.0410  -0.0879  -0.0470
22.80   0.0424  -0.0887  -0.0463
22.90   0.0438  -0.0895  -0.0457
23.00   0.0452  -0.0903  -0.0450
23.10   0.0467  -0.0910  -0.0443
23.20   0.0482  -0.0918  -0.0436
23.30   0.0498  -0.0926  -0.0428
23.40   0.0514  -0.0934  -0.0420
23.50   0.0530  -0.0942  -0.0412
23.60   0.0547  -0.0949  -0.0403
23.70   0.0563  -0.0957  -0.0394
23.80   0.0580  -0.0964  -0.0385
23.90   0.0597  -0.0972  -0.0375
24.00   0.0615  -0.0979  -0.0364
24.10   0.0632  -0.0985  -0.0354
24.20   0.0650  -0.0992  -0.0342
24.30   0.0667  -0.0998  -0.0331
24.40   0.0685  -0.1005  -0.0319
24.50   0.0703  -0.1010  -0.0307
24.60   0.0721  -0.1016  -0.0294
24.70   0.0738  -0.1020  -0.0282
24.80   0.0756  -0.1025  -0.0268
24.90   0.0774  -0.1028  -0.0254
25.00   0.0791  -0.1030  -0.0239
25.10   0.0808  -0.1031  -0.0223
25.20   0.0825  -0.1033  -0.0207
25.30   0.0842  -0.1033  -0.0191
25.40   0.0859  -0.1034  -0.0174
25.50   0.0876  -0.1034  -0.0158
25.60   0.0892  -0.1034  -0.0141
25.70   0.0909  -0.1033  -0.0124
25.80   0.0924  -0.1033  -0.0108
25.90   0.0940  -0.1032  -0.0091
26.00   0.0956  -0.1030  -0.0075
26.10   0.0971  -0.1029  -0.0058
26.20   0.0986  -0.1027  -0.0041
26.30   0.1001  -0.1026  -0.0025
26.40   0.1017  -0.1025  -0.0008
26.50   0.1033  -0.1025   0.0009
26.60   0.1050  -0.1024   0.0026
26.70   0.1067  -0.1024   0.0043
26.80   0.1084  -0.1024   0.0060
26.90   0.1101  -0.1024   0.0077
27.00   0.1118  -0.1023   0.0094
27.10   0.1134  -0.1023   0.0111
27.20   0.1150  -0.1022   0.0128
27.30   0.1166  -0.1021   0.0145
27.40   0.1181  -0.1019   0.0162
27.50   0.1197  -0.1018   0.0179
27.60   0.1212  -0.1016   0.0196
27.70   0.1226  -0.1014   0.0212
27.80   0.1240  -0.1011   0.0229
27.90   0.1253  -0.1008   0.0245
28.00   0.1266  -0.1004   0.0262
28.10   0.1279  -0.1001   0.0279
28.20   0.1291  -0.0996   0.0295
28.30   0.1303  -0.0992   0.0311
28.40   0.1315  -0.0987   0.0327
28.50   0.1325  -0.0983   0.0343
28.60   0.1335  -0.0978   0.0358
28.70   0.1346  -0.0973   0.0373
28.80   0.1355  -0.0968   0.0388
28.90   0.1364  -0.0962   0.0402
29.00   0.1373  -0.0957   0.0416
29.10   0.1381  -0.0951   0.0429
29.20   0.1389  -0.0946   0.0443
29.30   0.1396  -0.0940   0.0456
29.40   0.1402  -0.0934   0.0468
29.50   0.1409  -0.0929   0.0480
29.60   0.1415  -0.0923   0.0492
29.70   0.1420  -0.0917   0.0503
29.80   0.1425  -0.0911   0.0514
29.90   0.1430  -0.0905   0.0525
30.00   0.1434  -0.0899   0.0536
