     height (km) solar hr (K/day)    IR hr (K/day)   Net hr (K/day)
 0.00  -0.1377  -0.1594  -0.2972
 0.10  -0.1419  -0.0708  -0.2126
 0.20  -0.1460   0.0179  -0.1281
 0.30  -0.1499   0.0996  -0.0503
 0.40  -0.1532   0.1678   0.0145
 0.50  -0.1552   0.2213   0.0660
 0.60  -0.1560   0.2628   0.1068
 0.70  -0.1563   0.3014   0.1452
 0.80  -0.1559   0.3383   0.1825
 0.90  -0.1543   0.3748   0.2207
 1.00  -0.1512   0.4067   0.2556
 1.10  -0.1471   0.4288   0.2817
 1.20  -0.1421   0.4472   0.3050
 1.30  -0.1374   0.4484   0.3109
 1.40  -0.1351   0.4343   0.2990
 1.50  -0.1342   0.4146   0.2803
 1.60  -0.1337   0.3921   0.2584
 1.70  -0.1332   0.3691   0.2359
 1.80  -0.1328   0.3466   0.2138
 1.90  -0.1330   0.3290   0.1962
 2.00  -0.1330   0.3085   0.1756
 2.10  -0.1327   0.2787   0.1459
 2.20  -0.1336   0.2657   0.1320
 2.30  -0.1353   0.2660   0.1309
 2.40  -0.1368   0.2623   0.1255
 2.50  -0.1383   0.2581   0.1197
 2.60  -0.1407   0.2704   0.1297
 2.70  -0.1428   0.2896   0.1468
 2.80  -0.1440   0.2955   0.1515
 2.90  -0.1456   0.3058   0.1603
 3.00  -0.1476   0.3228   0.1750
 3.10  -0.1486   0.3297   0.1812
 3.20  -0.1496   0.3435   0.1940
 3.30  -0.1499   0.3512   0.2012
 3.40  -0.1501   0.3599   0.2099
 3.50  -0.1504   0.3706   0.2203
 3.60  -0.1508   0.3829   0.2322
 3.70  -0.1510   0.3963   0.2455
 3.80  -0.1508   0.4105   0.2597
 3.90  -0.1497   0.4155   0.2660
 4.00  -0.1476   0.4081   0.2605
 4.10  -0.1465   0.4106   0.2642
 4.20  -0.1453   0.4167   0.2713
 4.30  -0.1449   0.4189   0.2739
 4.40  -0.1452   0.4246   0.2794
 4.50  -0.1464   0.4295   0.2831
 4.60  -0.1479   0.4331   0.2852
 4.70  -0.1494   0.4363   0.2868
 4.80  -0.1503   0.4357   0.2853
 4.90  -0.1503   0.4420   0.2915
 5.00  -0.1490   0.4836   0.3344
 5.10  -0.1466   0.5722   0.4254
 5.20  -0.1442   0.6449   0.5007
 5.30  -0.1400   0.6698   0.5297
 5.40  -0.1350   0.6899   0.5551
 5.50  -0.1309   0.6714   0.5404
 5.60  -0.1257   0.6589   0.5330
 5.70  -0.1232   0.6370   0.5137
 5.80  -0.1152   0.6042   0.4887
 5.90  -0.1106   0.5904   0.4796
 6.00  -0.1091   0.5948   0.4857
 6.10  -0.1056   0.5902   0.4848
 6.20  -0.1019   0.5830   0.4810
 6.30  -0.0983   0.5816   0.4831
 6.40  -0.0916   0.5722   0.4805
 6.50  -0.0858   0.5662   0.4803
 6.60  -0.0791   0.5542   0.4750
 6.70  -0.0720   0.5434   0.4714
 6.80  -0.0645   0.5326   0.4683
 6.90  -0.0573   0.5198   0.4627
 7.00  -0.0516   0.5102   0.4586
 7.10  -0.0467   0.4947   0.4479
 7.20  -0.0450   0.5005   0.4554
 7.30  -0.0430   0.5055   0.4627
 7.40  -0.0410   0.4967   0.4558
 7.50  -0.0422   0.5145   0.4725
 7.60  -0.0427   0.5211   0.4786
 7.70  -0.0437   0.5343   0.4905
 7.80  -0.0419   0.5463   0.5043
 7.90  -0.0408   0.5652   0.5243
 8.00  -0.0401   0.5840   0.5437
 8.10  -0.0406   0.6097   0.5690
 8.20  -0.0375   0.6270   0.5894
 8.30  -0.0314   0.6302   0.5989
 8.40  -0.0226   0.6312   0.6087
 8.50  -0.0135   0.6405   0.6272
 8.60  -0.0032   0.6430   0.6398
 8.70   0.0064   0.6400   0.6465
 8.80   0.0136   0.6540   0.6676
 8.90   0.0235   0.6585   0.6820
 9.00   0.0325   0.6669   0.6996
 9.10   0.0414   0.6769   0.7185
 9.20   0.0505   0.6806   0.7312
 9.30   0.0591   0.6943   0.7534
 9.40   0.0683   0.7056   0.7739
 9.50   0.0791   0.7128   0.7921
 9.60   0.0904   0.7238   0.8143
 9.70   0.1035   0.7254   0.8290
 9.80   0.1163   0.7293   0.8455
 9.90   0.1315   0.7202   0.8518
10.00   0.1451   0.7263   0.8712
10.10   0.1630   0.7159   0.8787
10.20   0.1785   0.7199   0.8984
10.30   0.1952   0.7115   0.9066
10.40   0.2142   0.7093   0.9237
10.50   0.2321   0.7050   0.9371
10.60   0.2499   0.6966   0.9464
10.70   0.2666   0.6964   0.9629
10.80   0.2851   0.6864   0.9714
10.90   0.3045   0.6746   0.9792
11.00   0.3252   0.6620   0.9870
11.10   0.3473   0.6376   0.9848
11.20   0.3692   0.6174   0.9864
11.30   0.3942   0.5824   0.9765
11.40   0.4174   0.5763   0.9938
11.50   0.4436   0.5505   0.9940
11.60   0.4707   0.5375   1.0083
11.70   0.4989   0.5089   1.0077
11.80   0.5274   0.4780   1.0053
11.90   0.5552   0.4516   1.0067
12.00   0.5822   0.4231   1.0054
12.10   0.6105   0.4007   1.0112
12.20   0.6416   0.3533   0.9951
12.30   0.6682   0.3247   0.9928
12.40   0.6919   0.2806   0.9723
12.50   0.7070   0.2479   0.9549
12.60   0.7178   0.2041   0.9220
12.70   0.7250   0.1741   0.8988
12.80   0.7293   0.1212   0.8507
12.90   0.7297   0.0874   0.8171
13.00   0.7284   0.0406   0.7690
13.10   0.7232   0.0058   0.7288
13.20   0.7137  -0.0297   0.6842
13.30   0.7002  -0.0465   0.6539
13.40   0.6869  -0.0858   0.6012
13.50   0.6707  -0.1140   0.5566
13.60   0.6519  -0.1317   0.5202
13.70   0.6303  -0.1489   0.4814
13.80   0.6063  -0.1599   0.4463
13.90   0.5802  -0.1713   0.4089
14.00   0.5513  -0.1608   0.3905
14.10   0.5253  -0.1645   0.3611
14.20   0.4959  -0.1494   0.3467
14.30   0.4714  -0.1552   0.3161
14.40   0.4459  -0.1480   0.2980
14.50   0.4150  -0.1152   0.2999
14.60   0.3899  -0.1138   0.2762
14.70   0.3607  -0.0986   0.2622
14.80   0.3366  -0.1000   0.2366
14.90   0.3116  -0.0922   0.2191
15.00   0.2850  -0.0800   0.2050
15.10   0.2630  -0.0724   0.1908
15.20   0.2391  -0.0561   0.1834
15.30   0.2194  -0.0525   0.1662
15.40   0.2007  -0.0529   0.1477
15.50   0.1791  -0.0348   0.1449
15.60   0.1636  -0.0293   0.1339
15.70   0.1482  -0.0233   0.1252
15.80   0.1309  -0.0091   0.1221
15.90   0.1175   0.0033   0.1207
16.00   0.1063   0.0052   0.1114
16.10   0.0934   0.0135   0.1069
16.20   0.0858   0.0071   0.0928
16.30   0.0753   0.0065   0.0816
16.40   0.0644   0.0046   0.0689
16.50   0.0570   0.0012   0.0582
16.60   0.0499  -0.0033   0.0465
16.70   0.0429  -0.0133   0.0294
16.80   0.0384  -0.0238   0.0140
16.90   0.0321  -0.0360  -0.0042
17.00   0.0265  -0.0533  -0.0269
17.10   0.0216  -0.0587  -0.0372
17.20   0.0167  -0.0597  -0.0431
17.30   0.0129  -0.0638  -0.0507
17.40   0.0115  -0.0668  -0.0552
17.50   0.0111  -0.0688  -0.0580
17.60   0.0101  -0.0704  -0.0605
17.70   0.0089  -0.0719  -0.0629
17.80   0.0090  -0.0757  -0.0665
17.90   0.0091  -0.0786  -0.0696
18.00   0.0085  -0.0790  -0.0703
18.10   0.0087  -0.0809  -0.0722
18.20   0.0091  -0.0829  -0.0738
18.30   0.0096  -0.0856  -0.0761
18.40   0.0103  -0.0884  -0.0783
18.50   0.0108  -0.0915  -0.0806
18.60   0.0117  -0.0943  -0.0827
18.70   0.0121  -0.0963  -0.0840
18.80   0.0126  -0.0978  -0.0852
18.90   0.0131  -0.0994  -0.0862
19.00   0.0136  -0.1010  -0.0872
19.10   0.0143  -0.1026  -0.0884
19.20   0.0149  -0.1045  -0.0897
19.30   0.0155  -0.1063  -0.0907
19.40   0.0164  -0.1081  -0.0920
19.50   0.0170  -0.1103  -0.0932
19.60   0.0179  -0.1125  -0.0947
19.70   0.0188  -0.1148  -0.0960
19.80   0.0196  -0.1173  -0.0975
19.90   0.0206  -0.1196  -0.0990
20.00   0.0216  -0.1223  -0.1005
20.10   0.0228  -0.1250  -0.1021
20.20   0.0239  -0.1278  -0.1037
20.30   0.0252  -0.1305  -0.1053
20.40   0.0263  -0.1333  -0.1068
20.50   0.0276  -0.1359  -0.1083
20.60   0.0287  -0.1381  -0.1092
20.70   0.0296  -0.1386  -0.1090
20.80   0.0303  -0.1388  -0.1084
20.90   0.0310  -0.1388  -0.1077
21.00   0.0317  -0.1389  -0.1072
21.10   0.0325  -0.1391  -0.1066
21.20   0.0332  -0.1393  -0.1061
21.30   0.0342  -0.1398  -0.1057
21.40   0.0349  -0.1404  -0.1054
21.50   0.0357  -0.1410  -0.1052
21.60   0.0369  -0.1417  -0.1049
21.70   0.0382  -0.1428  -0.1048
21.80   0.0394  -0.1438  -0.1047
21.90   0.0405  -0.1451  -0.1048
22.00   0.0417  -0.1463  -0.1047
22.10   0.0429  -0.1476  -0.1045
22.20   0.0445  -0.1490  -0.1044
22.30   0.0460  -0.1504  -0.1043
22.40   0.0476  -0.1520  -0.1042
22.50   0.0492  -0.1537  -0.1043
22.60   0.0511  -0.1554  -0.1043
22.70   0.0530  -0.1571  -0.1042
22.80   0.0549  -0.1590  -0.1041
22.90   0.0569  -0.1611  -0.1041
23.00   0.0590  -0.1631  -0.1041
23.10   0.0610  -0.1652  -0.1041
23.20   0.0632  -0.1675  -0.1039
23.30   0.0655  -0.1694  -0.1038
23.40   0.0679  -0.1716  -0.1037
23.50   0.0704  -0.1737  -0.1035
23.60   0.0727  -0.1760  -0.1032
23.70   0.0753  -0.1783  -0.1030
23.80   0.0779  -0.1806  -0.1027
23.90   0.0807  -0.1830  -0.1022
24.00   0.0834  -0.1854  -0.1019
24.10   0.0863  -0.1877  -0.1013
24.20   0.0890  -0.1897  -0.1008
24.30   0.0918  -0.1920  -0.1000
24.40   0.0946  -0.1940  -0.0992
24.50   0.0974  -0.1958  -0.0984
24.60   0.1003  -0.1977  -0.0974
24.70   0.1030  -0.1992  -0.0963
24.80   0.1059  -0.2008  -0.0949
24.90   0.1087  -0.2019  -0.0932
25.00   0.1114  -0.2027  -0.0915
25.10   0.1141  -0.2035  -0.0895
25.20   0.1166  -0.2042  -0.0874
25.30   0.1193  -0.2048  -0.0854
25.40   0.1220  -0.2052  -0.0833
25.50   0.1244  -0.2056  -0.0812
25.60   0.1268  -0.2058  -0.0788
25.70   0.1292  -0.2057  -0.0765
25.80   0.1316  -0.2059  -0.0742
25.90   0.1338  -0.2057  -0.0719
26.00   0.1362  -0.2058  -0.0695
26.10   0.1383  -0.2053  -0.0670
26.20   0.1406  -0.2052  -0.0646
26.30   0.1426  -0.2048  -0.0622
26.40   0.1449  -0.2047  -0.0598
26.50   0.1473  -0.2046  -0.0574
26.60   0.1496  -0.2046  -0.0549
26.70   0.1522  -0.2045  -0.0526
26.80   0.1543  -0.2043  -0.0501
26.90   0.1565  -0.2042  -0.0476
27.00   0.1590  -0.2040  -0.0452
27.10   0.1610  -0.2039  -0.0428
27.20   0.1632  -0.2034  -0.0402
27.30   0.1652  -0.2029  -0.0378
27.40   0.1673  -0.2025  -0.0352
27.50   0.1691  -0.2019  -0.0329
27.60   0.1712  -0.2014  -0.0304
27.70   0.1728  -0.2009  -0.0279
27.80   0.1747  -0.2003  -0.0257
27.90   0.1765  -0.1994  -0.0231
28.00   0.1783  -0.1985  -0.0204
28.10   0.1798  -0.1976  -0.0178
28.20   0.1813  -0.1965  -0.0153
28.30   0.1827  -0.1956  -0.0129
28.40   0.1841  -0.1946  -0.0105
28.50   0.1855  -0.1935  -0.0080
28.60   0.1868  -0.1923  -0.0057
28.70   0.1879  -0.1912  -0.0034
28.80   0.1887  -0.1901  -0.0011
28.90   0.1898  -0.1888   0.0012
29.00   0.1912  -0.1877   0.0034
29.10   0.1921  -0.1865   0.0054
29.20   0.1928  -0.1853   0.0077
29.30   0.1938  -0.1839   0.0097
29.40   0.1942  -0.1826   0.0117
29.50   0.1952  -0.1814   0.0137
29.60   0.1959  -0.1800   0.0156
29.70   0.1965  -0.1788   0.0176
29.80   0.1969  -0.1775   0.0194
29.90   0.1972  -0.1763   0.0210
30.00   0.1976  -0.1749   0.0228
