     height (km) solar hr (K/day)    IR hr (K/day)   Net hr (K/day)
 0.00  -0.1622  -0.1562  -0.3180
 0.10  -0.1669  -0.0612  -0.2279
 0.20  -0.1716   0.0338  -0.1379
 0.30  -0.1760   0.1189  -0.0571
 0.40  -0.1796   0.1887   0.0093
 0.50  -0.1820   0.2450   0.0630
 0.60  -0.1834   0.2907   0.1069
 0.70  -0.1842   0.3321   0.1481
 0.80  -0.1841   0.3709   0.1869
 0.90  -0.1825   0.4099   0.2275
 1.00  -0.1794   0.4412   0.2620
 1.10  -0.1747   0.4609   0.2862
 1.20  -0.1691   0.4704   0.3014
 1.30  -0.1635   0.4759   0.3125
 1.40  -0.1603   0.4630   0.3026
 1.50  -0.1588   0.4402   0.2813
 1.60  -0.1580   0.4088   0.2508
 1.70  -0.1584   0.3855   0.2271
 1.80  -0.1593   0.3661   0.2068
 1.90  -0.1600   0.3422   0.1824
 2.00  -0.1609   0.3261   0.1651
 2.10  -0.1621   0.3140   0.1521
 2.20  -0.1632   0.2958   0.1329
 2.30  -0.1651   0.2987   0.1336
 2.40  -0.1672   0.3029   0.1357
 2.50  -0.1692   0.3088   0.1397
 2.60  -0.1712   0.3161   0.1449
 2.70  -0.1733   0.3261   0.1527
 2.80  -0.1752   0.3389   0.1637
 2.90  -0.1761   0.3381   0.1623
 3.00  -0.1779   0.3493   0.1716
 3.10  -0.1790   0.3581   0.1792
 3.20  -0.1802   0.3708   0.1906
 3.30  -0.1809   0.3861   0.2052
 3.40  -0.1813   0.4019   0.2207
 3.50  -0.1807   0.4114   0.2308
 3.60  -0.1796   0.4179   0.2384
 3.70  -0.1786   0.4272   0.2485
 3.80  -0.1770   0.4292   0.2520
 3.90  -0.1751   0.4245   0.2496
 4.00  -0.1737   0.4351   0.2614
 4.10  -0.1719   0.4327   0.2608
 4.20  -0.1716   0.4446   0.2729
 4.30  -0.1713   0.4511   0.2798
 4.40  -0.1724   0.4643   0.2919
 4.50  -0.1735   0.4675   0.2942
 4.60  -0.1751   0.4709   0.2959
 4.70  -0.1774   0.4756   0.2983
 4.80  -0.1799   0.4810   0.3012
 4.90  -0.1819   0.4975   0.3157
 5.00  -0.1832   0.5476   0.3644
 5.10  -0.1838   0.6340   0.4503
 5.20  -0.1822   0.7135   0.5311
 5.30  -0.1784   0.7656   0.5871
 5.40  -0.1734   0.8303   0.6567
 5.50  -0.1690   0.8065   0.6374
 5.60  -0.1614   0.7706   0.6091
 5.70  -0.1579   0.7556   0.5979
 5.80  -0.1541   0.7271   0.5731
 5.90  -0.1507   0.7048   0.5540
 6.00  -0.1459   0.6829   0.5370
 6.10  -0.1415   0.6703   0.5288
 6.20  -0.1360   0.6589   0.5227
 6.30  -0.1292   0.6491   0.5198
 6.40  -0.1222   0.6366   0.5143
 6.50  -0.1163   0.6249   0.5084
 6.60  -0.1082   0.6035   0.4951
 6.70  -0.1004   0.5900   0.4897
 6.80  -0.0932   0.5819   0.4889
 6.90  -0.0849   0.5670   0.4821
 7.00  -0.0793   0.5610   0.4817
 7.10  -0.0724   0.5485   0.4760
 7.20  -0.0684   0.5422   0.4739
 7.30  -0.0689   0.5544   0.4855
 7.40  -0.0681   0.5525   0.4843
 7.50  -0.0684   0.5562   0.4878
 7.60  -0.0690   0.5670   0.4981
 7.70  -0.0712   0.5872   0.5162
 7.80  -0.0738   0.6066   0.5329
 7.90  -0.0751   0.6245   0.5495
 8.00  -0.0744   0.6393   0.5651
 8.10  -0.0733   0.6477   0.5745
 8.20  -0.0718   0.6643   0.5927
 8.30  -0.0665   0.6740   0.6079
 8.40  -0.0589   0.6793   0.6204
 8.50  -0.0514   0.6905   0.6391
 8.60  -0.0436   0.7044   0.6608
 8.70  -0.0340   0.7139   0.6797
 8.80  -0.0230   0.7215   0.6986
 8.90  -0.0130   0.7330   0.7199
 9.00  -0.0040   0.7466   0.7424
 9.10   0.0048   0.7627   0.7675
 9.20   0.0134   0.7735   0.7869
 9.30   0.0202   0.7921   0.8123
 9.40   0.0269   0.8138   0.8407
 9.50   0.0361   0.8380   0.8740
 9.60   0.0462   0.8620   0.9081
 9.70   0.0586   0.8873   0.9459
 9.80   0.0693   0.8996   0.9690
 9.90   0.0829   0.8971   0.9801
10.00   0.0980   0.9048   1.0028
10.10   0.1152   0.9089   1.0242
10.20   0.1342   0.9121   1.0462
10.30   0.1539   0.9174   1.0712
10.40   0.1748   0.9138   1.0886
10.50   0.1952   0.9171   1.1122
10.60   0.2167   0.9185   1.1352
10.70   0.2347   0.9248   1.1596
10.80   0.2526   0.9258   1.1784
10.90   0.2716   0.9318   1.2034
11.00   0.2940   0.9286   1.2226
11.10   0.3192   0.9107   1.2296
11.20   0.3448   0.8990   1.2437
11.30   0.3711   0.8805   1.2515
11.40   0.3969   0.8685   1.2653
11.50   0.4271   0.8458   1.2728
11.60   0.4595   0.8284   1.2877
11.70   0.4908   0.8124   1.3033
11.80   0.5245   0.7850   1.3096
11.90   0.5581   0.7605   1.3184
12.00   0.5913   0.7279   1.3194
12.10   0.6248   0.6939   1.3189
12.20   0.6592   0.6562   1.3156
12.30   0.6914   0.6315   1.3229
12.40   0.7195   0.6025   1.3221
12.50   0.7436   0.5736   1.3173
12.60   0.7653   0.5242   1.2896
12.70   0.7811   0.4867   1.2677
12.80   0.7965   0.4434   1.2403
12.90   0.8095   0.4049   1.2145
13.00   0.8215   0.3467   1.1680
13.10   0.8291   0.2972   1.1264
13.20   0.8348   0.2416   1.0763
13.30   0.8350   0.2004   1.0354
13.40   0.8291   0.1640   0.9931
13.50   0.8238   0.1213   0.9451
13.60   0.8154   0.0742   0.8898
13.70   0.8044   0.0381   0.8429
13.80   0.7891   0.0006   0.7897
13.90   0.7705  -0.0351   0.7355
14.00   0.7474  -0.0561   0.6911
14.10   0.7213  -0.0699   0.6515
14.20   0.6966  -0.0835   0.6130
14.30   0.6696  -0.0951   0.5746
14.40   0.6415  -0.0994   0.5424
14.50   0.6122  -0.0959   0.5164
14.60   0.5823  -0.0929   0.4895
14.70   0.5525  -0.0854   0.4670
14.80   0.5225  -0.0786   0.4437
14.90   0.4932  -0.0663   0.4268
15.00   0.4650  -0.0585   0.4064
15.10   0.4387  -0.0492   0.3896
15.20   0.4114  -0.0300   0.3816
15.30   0.3867  -0.0243   0.3624
15.40   0.3614  -0.0149   0.3465
15.50   0.3359   0.0040   0.3398
15.60   0.3120   0.0192   0.3312
15.70   0.2883   0.0432   0.3317
15.80   0.2657   0.0721   0.3376
15.90   0.2472   0.1026   0.3498
16.00   0.2349   0.1124   0.3471
16.10   0.2237   0.1171   0.3410
16.20   0.2109   0.1253   0.3365
16.30   0.1962   0.1360   0.3322
16.40   0.1830   0.1309   0.3137
16.50   0.1670   0.1341   0.3009
16.60   0.1511   0.1294   0.2805
16.70   0.1387   0.1115   0.2503
16.80   0.1244   0.1058   0.2302
16.90   0.1108   0.0933   0.2043
17.00   0.1003   0.0681   0.1683
17.10   0.0883   0.0439   0.1321
17.20   0.0743   0.0302   0.1043
17.30   0.0646   0.0099   0.0746
17.40   0.0558  -0.0059   0.0497
17.50   0.0465  -0.0194   0.0268
17.60   0.0387  -0.0335   0.0052
17.70   0.0336  -0.0496  -0.0160
17.80   0.0279  -0.0666  -0.0386
17.90   0.0215  -0.0740  -0.0523
18.00   0.0181  -0.0831  -0.0650
18.10   0.0153  -0.0892  -0.0740
18.20   0.0143  -0.0987  -0.0843
18.30   0.0140  -0.1056  -0.0915
18.40   0.0146  -0.1123  -0.0981
18.50   0.0148  -0.1186  -0.1039
18.60   0.0155  -0.1227  -0.1073
18.70   0.0160  -0.1260  -0.1101
18.80   0.0165  -0.1286  -0.1120
18.90   0.0173  -0.1311  -0.1137
19.00   0.0182  -0.1336  -0.1154
19.10   0.0190  -0.1361  -0.1172
19.20   0.0199  -0.1385  -0.1188
19.30   0.0207  -0.1409  -0.1203
19.40   0.0217  -0.1435  -0.1216
19.50   0.0225  -0.1459  -0.1232
19.60   0.0236  -0.1484  -0.1247
19.70   0.0248  -0.1509  -0.1263
19.80   0.0259  -0.1536  -0.1277
19.90   0.0272  -0.1561  -0.1291
20.00   0.0282  -0.1588  -0.1305
20.10   0.0296  -0.1615  -0.1318
20.20   0.0308  -0.1640  -0.1331
20.30   0.0322  -0.1666  -0.1343
20.40   0.0336  -0.1692  -0.1355
20.50   0.0351  -0.1716  -0.1365
20.60   0.0362  -0.1730  -0.1367
20.70   0.0371  -0.1729  -0.1359
20.80   0.0376  -0.1726  -0.1347
20.90   0.0387  -0.1721  -0.1334
21.00   0.0393  -0.1716  -0.1322
21.10   0.0399  -0.1713  -0.1311
21.20   0.0410  -0.1711  -0.1302
21.30   0.0417  -0.1707  -0.1292
21.40   0.0427  -0.1709  -0.1281
21.50   0.0438  -0.1711  -0.1275
21.60   0.0447  -0.1715  -0.1268
21.70   0.0458  -0.1719  -0.1261
21.80   0.0468  -0.1726  -0.1257
21.90   0.0481  -0.1734  -0.1252
22.00   0.0495  -0.1740  -0.1247
22.10   0.0510  -0.1748  -0.1239
22.20   0.0525  -0.1756  -0.1232
22.30   0.0539  -0.1766  -0.1226
22.40   0.0556  -0.1776  -0.1221
22.50   0.0575  -0.1790  -0.1215
22.60   0.0589  -0.1802  -0.1212
22.70   0.0610  -0.1818  -0.1208
22.80   0.0630  -0.1832  -0.1203
22.90   0.0649  -0.1849  -0.1199
23.00   0.0671  -0.1866  -0.1195
23.10   0.0692  -0.1882  -0.1191
23.20   0.0713  -0.1901  -0.1187
23.30   0.0738  -0.1921  -0.1182
23.40   0.0762  -0.1940  -0.1178
23.50   0.0787  -0.1959  -0.1172
23.60   0.0813  -0.1980  -0.1168
23.70   0.0836  -0.1997  -0.1162
23.80   0.0862  -0.2015  -0.1154
23.90   0.0887  -0.2033  -0.1147
24.00   0.0914  -0.2051  -0.1140
24.10   0.0940  -0.2068  -0.1129
24.20   0.0965  -0.2083  -0.1118
24.30   0.0993  -0.2100  -0.1107
24.40   0.1021  -0.2117  -0.1097
24.50   0.1048  -0.2131  -0.1084
24.60   0.1075  -0.2146  -0.1070
24.70   0.1103  -0.2158  -0.1058
24.80   0.1129  -0.2169  -0.1040
24.90   0.1156  -0.2178  -0.1021
25.00   0.1183  -0.2186  -0.1002
25.10   0.1212  -0.2193  -0.0981
25.20   0.1239  -0.2199  -0.0961
25.30   0.1265  -0.2203  -0.0938
25.40   0.1292  -0.2209  -0.0916
25.50   0.1318  -0.2212  -0.0892
25.60   0.1346  -0.2217  -0.0871
25.70   0.1372  -0.2218  -0.0846
25.80   0.1396  -0.2220  -0.0823
25.90   0.1424  -0.2222  -0.0798
26.00   0.1449  -0.2224  -0.0775
26.10   0.1475  -0.2223  -0.0747
26.20   0.1499  -0.2224  -0.0723
26.30   0.1527  -0.2227  -0.0700
26.40   0.1555  -0.2232  -0.0674
26.50   0.1585  -0.2235  -0.0650
26.60   0.1614  -0.2240  -0.0625
26.70   0.1644  -0.2244  -0.0601
26.80   0.1672  -0.2247  -0.0575
26.90   0.1701  -0.2248  -0.0550
27.00   0.1729  -0.2251  -0.0524
27.10   0.1758  -0.2253  -0.0498
27.20   0.1785  -0.2254  -0.0471
27.30   0.1812  -0.2257  -0.0444
27.40   0.1838  -0.2254  -0.0418
27.50   0.1864  -0.2254  -0.0391
27.60   0.1888  -0.2252  -0.0364
27.70   0.1913  -0.2251  -0.0336
27.80   0.1938  -0.2247  -0.0309
27.90   0.1963  -0.2239  -0.0280
28.00   0.1985  -0.2234  -0.0249
28.10   0.2006  -0.2227  -0.0221
28.20   0.2027  -0.2219  -0.0192
28.30   0.2048  -0.2212  -0.0164
28.40   0.2068  -0.2203  -0.0136
28.50   0.2086  -0.2196  -0.0107
28.60   0.2106  -0.2186  -0.0080
28.70   0.2122  -0.2175  -0.0054
28.80   0.2139  -0.2166  -0.0027
28.90   0.2156  -0.2157  -0.0001
29.00   0.2172  -0.2146   0.0025
29.10   0.2189  -0.2136   0.0050
29.20   0.2201  -0.2124   0.0077
29.30   0.2211  -0.2113   0.0102
29.40   0.2226  -0.2101   0.0125
29.50   0.2238  -0.2091   0.0151
29.60   0.2248  -0.2078   0.0171
29.70   0.2259  -0.2067   0.0197
29.80   0.2272  -0.2054   0.0218
29.90   0.2282  -0.2043   0.0239
30.00   0.2291  -0.2030   0.0261
