pressure (hPa)         ozone mixing ration (kg/kg)
     0.207579  1.62257e-06
     0.237186  1.79115e-06
     0.271016  1.96255e-06
     0.309671  2.13830e-06
     0.353839  2.33331e-06
     0.404308  2.54169e-06
     0.461975  2.76454e-06
     0.527867  3.02276e-06
     0.603157  3.30509e-06
     0.689185  3.61283e-06
     0.787484  3.97144e-06
     0.899804  4.37926e-06
      1.02814  4.82964e-06
      1.17479  5.33985e-06
      1.34235  5.92280e-06
      1.53381  6.56089e-06
      1.75258  7.26662e-06
      2.00255  8.07454e-06
      2.28818  8.94012e-06
      2.61454  9.86130e-06
      2.98745  1.08472e-05
      3.41356  1.17903e-05
      3.90044  1.26765e-05
      4.45676  1.33831e-05
      5.09243  1.40558e-05
      5.81877  1.46736e-05
      6.64870  1.51662e-05
      7.59701  1.56440e-05
      8.68058  1.59504e-05
      9.91870  1.60103e-05
      10.0518  1.59961e-05
      10.1868  1.59846e-05
      10.3235  1.59858e-05
      10.4621  1.59684e-05
      10.6025  1.59605e-05
      10.7448  1.59374e-05
      10.8890  1.59165e-05
      11.0352  1.59044e-05
      11.1833  1.58837e-05
      11.3334  1.58676e-05
      11.4855  1.58378e-05
      11.6397  1.58121e-05
      11.7959  1.57763e-05
      11.9543  1.57515e-05
      12.1147  1.57099e-05
      12.2773  1.56520e-05
      12.4421  1.55945e-05
      12.6091  1.55401e-05
      12.7784  1.54775e-05
      12.9499  1.54144e-05
      13.1237  1.53493e-05
      13.2999  1.52762e-05
      13.4784  1.52082e-05
      13.6593  1.51337e-05
      13.8427  1.50624e-05
      14.0285  1.49847e-05
      14.2168  1.49020e-05
      14.4076  1.48154e-05
      14.6010  1.47201e-05
      14.7970  1.46218e-05
      14.9956  1.45186e-05
      15.1969  1.44117e-05
      15.4008  1.42974e-05
      15.6076  1.41825e-05
      15.8170  1.40691e-05
      16.0294  1.39483e-05
      16.2445  1.38246e-05
      16.4626  1.37002e-05
      16.6835  1.35713e-05
      16.9075  1.34443e-05
      17.1344  1.33162e-05
      17.3644  1.31818e-05
      17.5975  1.30470e-05
      17.8337  1.29093e-05
      18.0730  1.27717e-05
      18.3156  1.26301e-05
      18.5615  1.24896e-05
      18.8106  1.23443e-05
      19.0631  1.21983e-05
      19.3190  1.20449e-05
      19.5783  1.18943e-05
      19.8411  1.17418e-05
      20.1074  1.15762e-05
      20.3773  1.14252e-05
      20.6508  1.12659e-05
      20.9280  1.11091e-05
      21.2089  1.09498e-05
      21.4936  1.07904e-05
      21.7821  1.06324e-05
      22.0745  1.04712e-05
      22.3708  1.03111e-05
      22.6710  1.01507e-05
      22.9753  9.99076e-06
      23.2837  9.82936e-06
      23.5963  9.66300e-06
      23.9130  9.49565e-06
      24.2340  9.33317e-06
      24.5592  9.16708e-06
      24.8889  9.00212e-06
      25.2230  8.83103e-06
      25.5615  8.66525e-06
      25.9046  8.49913e-06
      26.2523  8.33877e-06
      26.6047  8.16943e-06
      26.9618  8.00986e-06
      27.3237  7.84597e-06
      27.6905  7.69295e-06
      28.0621  7.53315e-06
      28.4388  7.37558e-06
      28.8205  7.21883e-06
      29.2074  7.05756e-06
      29.5994  6.90685e-06
      29.9967  6.75404e-06
      30.3994  6.60056e-06
      30.8074  6.45054e-06
      31.2209  6.30251e-06
      31.6400  6.15658e-06
      32.0647  6.01171e-06
      32.4951  5.86533e-06
      32.9312  5.72515e-06
      33.3733  5.58973e-06
      33.8212  5.45039e-06
      34.2752  5.31349e-06
      34.7352  5.17783e-06
      35.2015  5.04481e-06
      35.6740  4.91405e-06
      36.1528  4.78579e-06
      36.6381  4.65941e-06
      37.1299  4.53565e-06
      37.6283  4.41355e-06
      38.1333  4.29373e-06
      38.6452  4.17580e-06
      39.1639  4.05905e-06
      39.6896  3.94320e-06
      40.2223  3.82883e-06
      40.7622  3.71721e-06
      41.3093  3.61019e-06
      41.8638  3.50581e-06
      42.4257  3.40249e-06
      42.9952  3.30156e-06
      43.5723  3.20097e-06
      44.1572  3.10189e-06
      44.7499  3.00290e-06
      45.3505  2.90487e-06
      45.9592  2.80943e-06
      46.5761  2.71792e-06
      47.2013  2.62669e-06
      47.8349  2.54039e-06
      48.4769  2.45477e-06
      49.1276  2.37073e-06
      49.7870  2.28824e-06
      50.4553  2.20547e-06
      51.1326  2.12673e-06
      51.8189  2.04757e-06
      52.5145  1.97099e-06
      53.2193  1.89663e-06
      53.9337  1.82502e-06
      54.6576  1.75504e-06
      55.3912  1.68513e-06
      56.1347  1.61876e-06
      56.8882  1.55254e-06
      57.6518  1.48829e-06
      58.4257  1.42412e-06
      59.2099  1.36196e-06
      60.0046  1.30137e-06
      60.8101  1.24294e-06
      61.6263  1.18546e-06
      62.4535  1.13073e-06
      63.2918  1.07715e-06
      64.1413  1.02519e-06
      65.0022  9.75865e-07
      65.8747  9.28113e-07
      66.7590  8.81708e-07
      67.6550  8.36694e-07
      68.5631  7.93567e-07
      69.4834  7.51366e-07
      70.4161  7.11529e-07
      71.3613  6.72842e-07
      72.3191  6.34802e-07
      73.2898  5.98003e-07
      74.2736  5.64123e-07
      75.2705  5.32426e-07
      76.2808  5.02198e-07
      77.3047  4.72891e-07
      78.3423  4.45469e-07
      79.3939  4.19895e-07
      80.4596  3.96478e-07
      81.5396  3.74471e-07
      82.6341  3.54102e-07
      83.7432  3.34733e-07
      84.8673  3.16847e-07
      86.0064  3.00058e-07
      87.1609  2.84455e-07
      88.3308  2.69865e-07
      89.5164  2.56397e-07
      90.7180  2.44180e-07
      91.9356  2.33377e-07
      93.1696  2.23386e-07
      94.4202  2.14018e-07
      95.6876  2.05465e-07
      96.9720  1.97677e-07
      98.2736  1.90410e-07
      99.5927  1.83680e-07
      100.929  1.77362e-07
      102.284  1.71894e-07
      103.657  1.66928e-07
      105.048  1.62280e-07
      106.458  1.58908e-07
      107.887  1.53787e-07
      109.336  1.49865e-07
      110.803  1.45965e-07
      112.290  1.42587e-07
      113.798  1.39386e-07
      115.325  1.36525e-07
      116.873  1.33763e-07
      118.442  1.31237e-07
      120.032  1.28934e-07
      121.643  1.26825e-07
      123.275  1.24703e-07
      124.930  1.22673e-07
      126.607  1.20712e-07
      128.306  1.18795e-07
      130.029  1.16979e-07
      131.774  1.15148e-07
      133.543  1.13595e-07
      135.335  1.12162e-07
      137.152  1.10717e-07
      138.993  1.09479e-07
      140.858  1.08159e-07
      142.749  1.06876e-07
      144.665  1.05667e-07
      146.607  1.04428e-07
      148.575  1.03315e-07
      150.569  1.02187e-07
      152.590  1.01078e-07
      154.638  1.00017e-07
      156.714  9.89634e-08
      158.817  9.79229e-08
      160.949  9.69056e-08
      163.110  9.59379e-08
      165.299  9.50898e-08
      167.518  9.43222e-08
      169.766  9.34935e-08
      172.045  9.27528e-08
      174.354  9.21553e-08
      176.694  9.15237e-08
      179.066  9.09173e-08
      181.470  9.04438e-08
      183.905  8.98648e-08
      186.374  8.93215e-08
      188.876  8.87645e-08
      191.411  8.81877e-08
      193.980  8.75201e-08
      196.584  8.69928e-08
      199.222  8.63751e-08
      201.896  8.59180e-08
      204.606  8.54856e-08
      207.353  8.51731e-08
      210.136  8.48175e-08
      212.957  8.45402e-08
      215.815  8.42101e-08
      218.712  8.38277e-08
      221.647  8.34751e-08
      224.623  8.33197e-08
      227.638  8.30151e-08
      230.693  8.28175e-08
      233.790  8.25449e-08
      236.928  8.22636e-08
      240.108  8.20029e-08
      243.331  8.18263e-08
      246.597  8.16940e-08
      249.907  8.15621e-08
      253.261  8.15427e-08
      256.661  8.15184e-08
      260.106  8.13660e-08
      263.597  8.13309e-08
      267.135  8.13166e-08
      270.721  8.11217e-08
      274.355  8.10053e-08
      278.037  8.09600e-08
      281.769  8.10466e-08
      285.551  8.10418e-08
      289.384  8.09268e-08
      293.268  8.09803e-08
      297.205  8.10390e-08
      301.194  8.09737e-08
      305.237  8.10559e-08
      309.334  8.11381e-08
      313.486  8.12203e-08
      317.694  8.13025e-08
      321.958  8.13846e-08
      326.280  8.14668e-08
      330.659  8.15490e-08
      335.098  8.16312e-08
      339.596  8.17134e-08
      344.154  8.17956e-08
      348.773  8.18030e-08
      353.455  8.18105e-08
      358.199  8.18180e-08
      363.007  8.18254e-08
      367.879  8.18329e-08
      372.817  8.18404e-08
      377.822  8.18479e-08
      382.893  8.18553e-08
      388.032  8.18628e-08
      393.241  8.18703e-08
      398.519  8.17546e-08
      403.868  8.16390e-08
      409.289  8.15233e-08
      414.783  8.14077e-08
      420.350  8.12920e-08
      425.993  8.11764e-08
      431.711  8.10607e-08
      437.505  8.09451e-08
      443.378  8.08294e-08
      449.329  8.07138e-08
      455.360  8.02448e-08
      461.472  7.97759e-08
      467.667  7.93069e-08
      473.944  7.88380e-08
      480.305  7.83690e-08
      486.752  7.79001e-08
      493.286  7.74311e-08
      499.907  7.69622e-08
      506.617  7.64932e-08
      513.417  7.60243e-08
      520.309  7.53238e-08
      527.293  7.46234e-08
      534.370  7.39229e-08
      541.543  7.32224e-08
      548.812  7.25220e-08
      556.178  7.18215e-08
      563.644  7.11211e-08
      571.209  7.04206e-08
      578.876  6.97201e-08
      586.646  6.90197e-08
      594.521  6.83245e-08
      602.501  6.76293e-08
      610.588  6.69342e-08
      618.783  6.62390e-08
      627.089  6.55438e-08
      635.506  6.48487e-08
      644.036  6.41535e-08
      652.681  6.34583e-08
      661.442  6.27631e-08
      670.320  6.20680e-08
      679.318  6.11156e-08
      688.436  6.01632e-08
      697.676  5.92108e-08
      707.041  5.82584e-08
      716.531  5.73060e-08
      726.149  5.63536e-08
      735.896  5.54012e-08
      745.773  5.44488e-08
      755.784  5.34964e-08
      765.928  5.25440e-08
      776.209  5.12960e-08
      786.628  5.00479e-08
      797.187  4.87999e-08
      807.887  4.75519e-08
      818.731  4.63038e-08
      829.721  4.50558e-08
      840.857  4.38078e-08
      852.144  4.25598e-08
      863.582  4.13117e-08
      875.174  4.00637e-08
      886.921  3.92512e-08
      898.825  3.84386e-08
      910.890  3.76261e-08
      923.117  3.68135e-08
      935.507  3.60010e-08
      948.064  3.51884e-08
      960.790  3.43759e-08
      973.686  3.35633e-08
      986.755  3.27508e-08
      1000.00  3.19383e-08
