pressure (hPa)         ozone mixing ration (kg/kg)    
     0.207579   1.6516331e-06
     0.237186   1.8394237e-06
     0.271016   2.0289705e-06
     0.309671   2.2181372e-06
     0.353839   2.4179471e-06
     0.404308   2.6353807e-06
     0.461975   2.8759109e-06
     0.527867   3.1495932e-06
     0.603157   3.4407421e-06
     0.689185   3.7519475e-06
     0.787484   4.1200844e-06
     0.899804   4.5320843e-06
      1.02814   4.9901778e-06
      1.17479   5.5326804e-06
      1.34235   6.1995899e-06
      1.53381   6.9434021e-06
      1.75258   7.7675225e-06
      2.00255   8.6705458e-06
      2.28818   9.5974684e-06
      2.61454   1.0540873e-05
      2.98745   1.1422343e-05
      3.41356   1.2148239e-05
      3.90044   1.2706146e-05
      4.45676   1.2927230e-05
      5.09243   1.3083283e-05
      5.81877   1.3137457e-05
      6.64870   1.3027241e-05
      7.59701   1.3073138e-05
      8.68058   1.3217686e-05
      9.91870   1.3285859e-05
      10.0518   1.3267042e-05
      10.1868   1.3206925e-05
      10.3235   1.3198009e-05
      10.4621   1.3214291e-05
      10.6025   1.3156322e-05
      10.7448   1.3183791e-05
      10.8890   1.3166934e-05
      11.0352   1.3145971e-05
      11.1833   1.3135916e-05
      11.3334   1.3109444e-05
      11.4855   1.3072388e-05
      11.6397   1.3105085e-05
      11.7959   1.3071140e-05
      11.9543   1.3039866e-05
      12.1147   1.3013418e-05
      12.2773   1.2960703e-05
      12.4421   1.2932750e-05
      12.6091   1.2918290e-05
      12.7784   1.2904253e-05
      12.9499   1.2886008e-05
      13.1237   1.2889436e-05
      13.2999   1.2791815e-05
      13.4784   1.2718782e-05
      13.6593   1.2752000e-05
      13.8427   1.2731661e-05
      14.0285   1.2709771e-05
      14.2168   1.2672055e-05
      14.4076   1.2588404e-05
      14.6010   1.2565318e-05
      14.7970   1.2482261e-05
      14.9956   1.2426368e-05
      15.1969   1.2401318e-05
      15.4008   1.2409891e-05
      15.6076   1.2298933e-05
      15.8170   1.2209399e-05
      16.0294   1.2132981e-05
      16.2445   1.2050905e-05
      16.4626   1.1959264e-05
      16.6835   1.1893229e-05
      16.9075   1.1801502e-05
      17.1344   1.1722109e-05
      17.3644   1.1644027e-05
      17.5975   1.1522057e-05
      17.8337   1.1468615e-05
      18.0730   1.1386526e-05
      18.3156   1.1226313e-05
      18.5615   1.1187243e-05
      18.8106   1.1045911e-05
      19.0631   1.0979099e-05
      19.3190   1.0862364e-05
      19.5783   1.0744808e-05
      19.8411   1.0628699e-05
      20.1074   1.0490592e-05
      20.3773   1.0385806e-05
      20.6508   1.0228584e-05
      20.9280   1.0143307e-05
      21.2089   1.0004924e-05
      21.4936   9.9361691e-06
      21.7821   9.8025835e-06
      22.0745   9.7032388e-06
      22.3708   9.5479363e-06
      22.6710   9.4983704e-06
      22.9753   9.2934242e-06
      23.2837   9.2051344e-06
      23.5963   9.0818809e-06
      23.9130   8.9612431e-06
      24.2340   8.8589051e-06
      24.5592   8.6989223e-06
      24.8889   8.5626653e-06
      25.2230   8.4599522e-06
      25.5615   8.3394558e-06
      25.9046   8.2112273e-06
      26.2523   8.0787023e-06
      26.6047   7.9535232e-06
      26.9618   7.8564389e-06
      27.3237   7.6921210e-06
      27.6905   7.5531824e-06
      28.0621   7.4241761e-06
      28.4388   7.2820297e-06
      28.8205   7.1892300e-06
      29.2074   7.0015562e-06
      29.5994   6.8980269e-06
      29.9967   6.7717455e-06
      30.3994   6.6525227e-06
      30.8074   6.5222176e-06
      31.2209   6.4021169e-06
      31.6400   6.2790539e-06
      32.0647   6.1632980e-06
      32.4951   6.0610194e-06
      32.9312   5.9672606e-06
      33.3733   5.8547497e-06
      33.8212   5.6867346e-06
      34.2752   5.5720809e-06
      34.7352   5.4546267e-06
      35.2015   5.3388138e-06
      35.6740   5.2208988e-06
      36.1528   5.1141631e-06
      36.6381   5.0142188e-06
      37.1299   4.8925631e-06
      37.6283   4.7910037e-06
      38.1333   4.7025366e-06
      38.6452   4.5863954e-06
      39.1639   4.4847866e-06
      39.6896   4.3824739e-06
      40.2223   4.2812246e-06
      40.7622   4.1817997e-06
      41.3093   4.0744190e-06
      41.8638   3.9770835e-06
      42.4257   3.8654175e-06
      42.9952   3.7690241e-06
      43.5723   3.6695396e-06
      44.1572   3.5721834e-06
      44.7499   3.4713477e-06
      45.3505   3.3676608e-06
      45.9592   3.2693901e-06
      46.5761   3.1880388e-06
      47.2013   3.1012069e-06
      47.8349   3.0365790e-06
      48.4769   2.9464929e-06
      49.1276   2.8764184e-06
      49.7870   2.7868720e-06
      50.4553   2.7068729e-06
      51.1326   2.6356014e-06
      51.8189   2.5080871e-06
      52.5145   2.4140887e-06
      53.2193   2.3259059e-06
      53.9337   2.2417491e-06
      54.6576   2.1423550e-06
      55.3912   2.0516371e-06
      56.1347   1.9809141e-06
      56.8882   1.9053939e-06
      57.6518   1.8367735e-06
      58.4257   1.7435424e-06
      59.2099   1.6664084e-06
      60.0046   1.5810608e-06
      60.8101   1.5079399e-06
      61.6263   1.4430764e-06
      62.4535   1.3768950e-06
      63.2918   1.3141950e-06
      64.1413   1.2370149e-06
      65.0022   1.1850352e-06
      65.8747   1.1210185e-06
      66.7590   1.0572046e-06
      67.6550   9.9790359e-07
      68.5631   9.5123784e-07
      69.4834   8.9394548e-07
      70.4161   8.3348855e-07
      71.3613   7.8705487e-07
      72.3191   7.3535862e-07
      73.2898   6.8294757e-07
      74.2736   6.3552213e-07
      75.2705   5.9106448e-07
      76.2808   5.4181977e-07
      77.3047   5.0174890e-07
      78.3423   4.6800530e-07
      79.3939   4.3299030e-07
      80.4596   4.0136953e-07
      81.5396   3.7320179e-07
      82.6341   3.5301897e-07
      83.7432   3.3467512e-07
      84.8673   3.1563740e-07
      86.0064   2.9391162e-07
      87.1609   2.7719304e-07
      88.3308   2.6429218e-07
      89.5164   2.5300884e-07
      90.7180   2.3914153e-07
      91.9356   2.2695920e-07
      93.1696   2.1622893e-07
      94.4202   2.0610919e-07
      95.6876   1.9932539e-07
      96.9720   1.9041825e-07
      98.2736   1.8393056e-07
      99.5927   1.7817796e-07
      100.929   1.7107287e-07
      102.284   1.6485312e-07
      103.657   1.6027860e-07
      105.048   1.5478880e-07
      106.458   1.4934151e-07
      107.887   1.4362438e-07
      109.336   1.4056802e-07
      110.803   1.3666568e-07
      112.290   1.3248609e-07
      113.798   1.2853507e-07
      115.325   1.2582039e-07
      116.873   1.2280812e-07
      118.442   1.2017350e-07
      120.032   1.1667936e-07
      121.643   1.1496490e-07
      123.275   1.1223247e-07
      124.930   1.0816105e-07
      126.607   1.0448955e-07
      128.306   1.0147256e-07
      130.029   9.8529437e-08
      131.774   9.5317504e-08
      133.543   9.3074956e-08
      135.335   9.2072196e-08
      137.152   9.0774034e-08
      138.993   8.8395827e-08
      140.858   8.6693745e-08
      142.749   8.4208730e-08
      144.665   8.2753095e-08
      146.607   8.1446534e-08
      148.575   8.0918060e-08
      150.569   7.9391415e-08
      152.590   7.7327522e-08
      154.638   7.5509796e-08
      156.714   7.3751755e-08
      158.817   7.2459073e-08
      160.949   7.1631880e-08
      163.110   7.1797174e-08
      165.299   7.0509109e-08
      167.518   6.8299164e-08
      169.766   6.6180851e-08
      172.045   6.5459912e-08
      174.354   6.2556315e-08
      176.694   6.1661973e-08
      179.066   6.0341578e-08
      181.470   5.9686922e-08
      183.905   5.8316750e-08
      186.374   5.6771048e-08
      188.876   5.5272853e-08
      191.411   5.4253975e-08
      193.980   5.3558768e-08
      196.584   5.2905377e-08
      199.222   5.2181565e-08
      201.896   5.2040873e-08
      204.606   5.2040695e-08
      207.353   5.2080804e-08
      210.136   5.1954506e-08
      212.957   5.1587378e-08
      215.815   5.1129168e-08
      218.712   5.0518884e-08
      221.647   5.0001638e-08
      224.623   5.0228672e-08
      227.638   5.0183516e-08
      230.693   4.9617509e-08
      233.790   5.0092950e-08
      236.928   4.9946155e-08
      240.108   4.9750096e-08
      243.331   4.9644541e-08
      246.597   5.0099498e-08
      249.907   5.0441062e-08
      253.261   5.0538869e-08
      256.661   5.0684395e-08
      260.106   5.1070026e-08
      263.597   5.1434498e-08
      267.135   5.1971486e-08
      270.721   5.1806881e-08
      274.355   5.2075260e-08
      278.037   5.2362018e-08
      281.769   5.2220801e-08
      285.551   5.2246391e-08
      289.384   5.2618626e-08
      293.268   5.4123082e-08
      297.205   5.4861833e-08
      301.194   5.4858773e-08
      305.237   5.5065279e-08
      309.334   5.5271785e-08
      313.486   5.5478292e-08
      317.694   5.5684805e-08
      321.958   5.5891312e-08
      326.280   5.6097818e-08
      330.659   5.6304324e-08
      335.098   5.6510830e-08
      339.596   5.6717337e-08
      344.154   5.6923843e-08
      348.773   5.7126299e-08
      353.455   5.7328755e-08
      358.199   5.7531211e-08
      363.007   5.7733668e-08
      367.879   5.7936124e-08
      372.817   5.8138580e-08
      377.822   5.8341036e-08
      382.893   5.8543492e-08
      388.032   5.8745948e-08
      393.241   5.8948404e-08
      398.519   5.9013987e-08
      403.868   5.9079570e-08
      409.289   5.9145152e-08
      414.783   5.9210735e-08
      420.350   5.9276318e-08
      425.993   5.9341901e-08
      431.711   5.9407483e-08
      437.505   5.9473066e-08
      443.378   5.9538649e-08
      449.329   5.9604232e-08
      455.360   5.9530209e-08
      461.472   5.9456186e-08
      467.667   5.9382161e-08
      473.944   5.9308138e-08
      480.305   5.9234115e-08
      486.752   5.9160093e-08
      493.286   5.9086070e-08
      499.907   5.9012047e-08
      506.617   5.8938025e-08
      513.417   5.8864002e-08
      520.309   5.8653379e-08
      527.293   5.8442755e-08
      534.370   5.8232132e-08
      541.543   5.8021509e-08
      548.812   5.7810886e-08
      556.178   5.7600263e-08
      563.644   5.7389640e-08
      571.209   5.7179017e-08
      578.876   5.6968394e-08
      586.646   5.6757771e-08
      594.521   5.6552395e-08
      602.501   5.6347020e-08
      610.588   5.6141644e-08
      618.783   5.5936269e-08
      627.089   5.5730893e-08
      635.506   5.5525518e-08
      644.036   5.5320142e-08
      652.681   5.5114767e-08
      661.442   5.4909392e-08
      670.320   5.4704016e-08
      679.318   5.3992638e-08
      688.436   5.3281258e-08
      697.676   5.2569879e-08
      707.041   5.1858499e-08
      716.531   5.1147120e-08
      726.149   5.0435740e-08
      735.896   4.9724360e-08
      745.773   4.9012981e-08
      755.784   4.8301601e-08
      765.928   4.7590222e-08
      776.209   4.7196741e-08
      786.628   4.6803261e-08
      797.187   4.6409766e-08
      807.887   4.6016285e-08
      818.731   4.5622804e-08
      829.721   4.5229323e-08
      840.857   4.4835842e-08
      852.144   4.4442361e-08
      863.582   4.4048880e-08
      875.174   4.3655399e-08
      886.921   4.2980107e-08
      898.825   4.2304815e-08
      910.890   4.1629522e-08
      923.117   4.0954230e-08
      935.507   4.0278937e-08
      948.064   3.9603645e-08
      960.790   3.8928353e-08
      973.686   3.8253060e-08
      986.755   3.7577768e-08
      1000.00   3.6902475e-08
