pressure (hPa)         ozone mixing ration (kg/kg)     
     0.207579   1.6293948e-06
     0.237186   1.8088357e-06
     0.271016   1.9931564e-06
     0.309671   2.1805134e-06
     0.353839   2.3780560e-06
     0.404308   2.5861378e-06
     0.461975   2.8069792e-06
     0.527867   3.0713839e-06
     0.603157   3.3588847e-06
     0.689185   3.6705637e-06
     0.787484   4.0326568e-06
     0.899804   4.4530788e-06
      1.02814   4.9231804e-06
      1.17479   5.4613434e-06
      1.34235   6.0663968e-06
      1.53381   6.7196640e-06
      1.75258   7.4300535e-06
      2.00255   8.2396011e-06
      2.28818   9.0985149e-06
      2.61454   1.0002742e-05
      2.98745   1.0918157e-05
      3.41356   1.1771520e-05
      3.90044   1.2552666e-05
      4.45676   1.3165890e-05
      5.09243   1.3758588e-05
      5.81877   1.4280291e-05
      6.64870   1.4589455e-05
      7.59701   1.4907649e-05
      8.68058   1.5049675e-05
      9.91870   1.5170141e-05
      10.0518   1.5168002e-05
      10.1868   1.5146729e-05
      10.3235   1.5155107e-05
      10.4621   1.5126908e-05
      10.6025   1.5145585e-05
      10.7448   1.5132361e-05
      10.8890   1.5127058e-05
      11.0352   1.5135456e-05
      11.1833   1.5133742e-05
      11.3334   1.5094958e-05
      11.4855   1.5104100e-05
      11.6397   1.5089046e-05
      11.7959   1.5067969e-05
      11.9543   1.5046383e-05
      12.1147   1.5021418e-05
      12.2773   1.4983219e-05
      12.4421   1.4925636e-05
      12.6091   1.4843506e-05
      12.7784   1.4821521e-05
      12.9499   1.4717094e-05
      13.1237   1.4672101e-05
      13.2999   1.4595754e-05
      13.4784   1.4521541e-05
      13.6593   1.4512230e-05
      13.8427   1.4436381e-05
      14.0285   1.4383168e-05
      14.2168   1.4293388e-05
      14.4076   1.4235179e-05
      14.6010   1.4154128e-05
      14.7970   1.4080234e-05
      14.9956   1.4013221e-05
      15.1969   1.3869397e-05
      15.4008   1.3810273e-05
      15.6076   1.3719947e-05
      15.8170   1.3593468e-05
      16.0294   1.3532192e-05
      16.2445   1.3391193e-05
      16.4626   1.3282557e-05
      16.6835   1.3181680e-05
      16.9075   1.3018889e-05
      17.1344   1.2927299e-05
      17.3644   1.2794936e-05
      17.5975   1.2695259e-05
      17.8337   1.2529403e-05
      18.0730   1.2413364e-05
      18.3156   1.2268770e-05
      18.5615   1.2157854e-05
      18.8106   1.2016431e-05
      19.0631   1.1868863e-05
      19.3190   1.1700332e-05
      19.5783   1.1567561e-05
      19.8411   1.1422173e-05
      20.1074   1.1253007e-05
      20.3773   1.1111384e-05
      20.6508   1.0947908e-05
      20.9280   1.0808079e-05
      21.2089   1.0641167e-05
      21.4936   1.0467437e-05
      21.7821   1.0300088e-05
      22.0745   1.0133023e-05
      22.3708   9.9874407e-06
      22.6710   9.8197750e-06
      22.9753   9.6523476e-06
      23.2837   9.5025976e-06
      23.5963   9.3182318e-06
      23.9130   9.1547288e-06
      24.2340   8.9599560e-06
      24.5592   8.8283064e-06
      24.8889   8.6535051e-06
      25.2230   8.5114860e-06
      25.5615   8.3533147e-06
      25.9046   8.2115112e-06
      26.2523   8.0615030e-06
      26.6047   7.9113448e-06
      26.9618   7.7533178e-06
      27.3237   7.5948082e-06
      27.6905   7.4331539e-06
      28.0621   7.2725722e-06
      28.4388   7.1372111e-06
      28.8205   6.9880264e-06
      29.2074   6.8163175e-06
      29.5994   6.6933277e-06
      29.9967   6.5527215e-06
      30.3994   6.3646354e-06
      30.8074   6.1894136e-06
      31.2209   6.0408990e-06
      31.6400   5.9135046e-06
      32.0647   5.7426016e-06
      32.4951   5.6107431e-06
      32.9312   5.4539979e-06
      33.3733   5.3118058e-06
      33.8212   5.1955675e-06
      34.2752   5.0554914e-06
      34.7352   4.9368526e-06
      35.2015   4.8034599e-06
      35.6740   4.6914837e-06
      36.1528   4.5902456e-06
      36.6381   4.4623165e-06
      37.1299   4.3446747e-06
      37.6283   4.2076505e-06
      38.1333   4.0693152e-06
      38.6452   3.9463703e-06
      39.1639   3.8281936e-06
      39.6896   3.6960981e-06
      40.2223   3.5963486e-06
      40.7622   3.4738803e-06
      41.3093   3.3645283e-06
      41.8638   3.2718474e-06
      42.4257   3.1562263e-06
      42.9952   3.0581808e-06
      43.5723   2.9667611e-06
      44.1572   2.8610622e-06
      44.7499   2.7653419e-06
      45.3505   2.6663664e-06
      45.9592   2.5728230e-06
      46.5761   2.4881210e-06
      47.2013   2.4021977e-06
      47.8349   2.3179471e-06
      48.4769   2.2374145e-06
      49.1276   2.1592152e-06
      49.7870   2.0802243e-06
      50.4553   1.9852521e-06
      51.1326   1.9007073e-06
      51.8189   1.8263658e-06
      52.5145   1.7565008e-06
      53.2193   1.6901464e-06
      53.9337   1.6129207e-06
      54.6576   1.5665180e-06
      55.3912   1.4973102e-06
      56.1347   1.4389898e-06
      56.8882   1.3719770e-06
      57.6518   1.3154340e-06
      58.4257   1.2574305e-06
      59.2099   1.1994322e-06
      60.0046   1.1483270e-06
      60.8101   1.0829011e-06
      61.6263   1.0208041e-06
      62.4535   9.7201046e-07
      63.2918   9.1997279e-07
      64.1413   8.7634276e-07
      65.0022   8.3640040e-07
      65.8747   8.0462514e-07
      66.7590   7.7201426e-07
      67.6550   7.3666578e-07
      68.5631   7.0801655e-07
      69.4834   6.6591731e-07
      70.4161   6.2638579e-07
      71.3613   5.8570091e-07
      72.3191   5.5295408e-07
      73.2898   5.1853113e-07
      74.2736   4.8782389e-07
      75.2705   4.5124113e-07
      76.2808   4.2241513e-07
      77.3047   3.9771438e-07
      78.3423   3.7404392e-07
      79.3939   3.5078776e-07
      80.4596   3.2963423e-07
      81.5396   3.0855346e-07
      82.6341   2.8643990e-07
      83.7432   2.6617640e-07
      84.8673   2.4836928e-07
      86.0064   2.3291539e-07
      87.1609   2.1872058e-07
      88.3308   2.0830184e-07
      89.5164   1.9796827e-07
      90.7180   1.8991939e-07
      91.9356   1.8362016e-07
      93.1696   1.7468447e-07
      94.4202   1.6622101e-07
      95.6876   1.5508876e-07
      96.9720   1.4646424e-07
      98.2736   1.3833720e-07
      99.5927   1.3260544e-07
      100.929   1.2575623e-07
      102.284   1.2021556e-07
      103.657   1.1452658e-07
      105.048   1.1201046e-07
      106.458   1.0870206e-07
      107.887   1.0336879e-07
      109.336   9.9704905e-08
      110.803   9.6889744e-08
      112.290   9.4167712e-08
      113.798   9.0148776e-08
      115.325   8.5686734e-08
      116.873   8.2901206e-08
      118.442   8.0765287e-08
      120.032   7.8899611e-08
      121.643   7.7618696e-08
      123.275   7.5267075e-08
      124.930   7.4025184e-08
      126.607   7.2569613e-08
      128.306   7.0762152e-08
      130.029   6.9291441e-08
      131.774   6.7477993e-08
      133.543   6.6131126e-08
      135.335   6.5984813e-08
      137.152   6.5268181e-08
      138.993   6.3675952e-08
      140.858   6.2173553e-08
      142.749   5.9261160e-08
      144.665   5.7984773e-08
      146.607   5.6094016e-08
      148.575   5.4743486e-08
      150.569   5.3835707e-08
      152.590   5.1784348e-08
      154.638   5.0452295e-08
      156.714   4.8825805e-08
      158.817   4.7380622e-08
      160.949   4.6100100e-08
      163.110   4.4906275e-08
      165.299   4.3483376e-08
      167.518   4.2282656e-08
      169.766   4.1549431e-08
      172.045   4.0081899e-08
      174.354   3.9296148e-08
      176.694   3.8533593e-08
      179.066   3.8352486e-08
      181.470   3.8820842e-08
      183.905   3.8493520e-08
      186.374   3.8298393e-08
      188.876   3.7983420e-08
      191.411   3.8627140e-08
      193.980   3.8443699e-08
      196.584   3.8866796e-08
      199.222   3.8619903e-08
      201.896   3.8343514e-08
      204.606   3.8079891e-08
      207.353   3.7832577e-08
      210.136   3.8218564e-08
      212.957   3.8117868e-08
      215.815   3.8197413e-08
      218.712   3.8165161e-08
      221.647   3.8266201e-08
      224.623   3.8204827e-08
      227.638   3.8119153e-08
      230.693   3.7647920e-08
      233.790   3.7551754e-08
      236.928   3.7322957e-08
      240.108   3.7617003e-08
      243.331   3.8373536e-08
      246.597   3.8720849e-08
      249.907   3.8922823e-08
      253.261   3.8834194e-08
      256.661   3.8991054e-08
      260.106   3.9296723e-08
      263.597   3.9698180e-08
      267.135   4.0719656e-08
      270.721   4.0673918e-08
      274.355   4.0548860e-08
      278.037   4.0614595e-08
      281.769   4.0334911e-08
      285.551   4.0556434e-08
      289.384   4.0207271e-08
      293.268   3.9932976e-08
      297.205   4.0121023e-08
      301.194   4.0425573e-08
      305.237   4.0871420e-08
      309.334   4.1317268e-08
      313.486   4.1763115e-08
      317.694   4.2208979e-08
      321.958   4.2654826e-08
      326.280   4.3100674e-08
      330.659   4.3546521e-08
      335.098   4.3992369e-08
      339.596   4.4438216e-08
      344.154   4.4884064e-08
      348.773   4.5435891e-08
      353.455   4.5987717e-08
      358.199   4.6539544e-08
      363.007   4.7091371e-08
      367.879   4.7643198e-08
      372.817   4.8195024e-08
      377.822   4.8746851e-08
      382.893   4.9298678e-08
      388.032   4.9850505e-08
      393.241   5.0402330e-08
      398.519   5.0446659e-08
      403.868   5.0490989e-08
      409.289   5.0535318e-08
      414.783   5.0579647e-08
      420.350   5.0623977e-08
      425.993   5.0668306e-08
      431.711   5.0712635e-08
      437.505   5.0756965e-08
      443.378   5.0801294e-08
      449.329   5.0845623e-08
      455.360   5.0935215e-08
      461.472   5.1024807e-08
      467.667   5.1114403e-08
      473.944   5.1203995e-08
      480.305   5.1293587e-08
      486.752   5.1383179e-08
      493.286   5.1472771e-08
      499.907   5.1562363e-08
      506.617   5.1651955e-08
      513.417   5.1741546e-08
      520.309   5.1287290e-08
      527.293   5.0833035e-08
      534.370   5.0378779e-08
      541.543   4.9924524e-08
      548.812   4.9470269e-08
      556.178   4.9016013e-08
      563.644   4.8561758e-08
      571.209   4.8107502e-08
      578.876   4.7653247e-08
      586.646   4.7198991e-08
      594.521   4.6770973e-08
      602.501   4.6342955e-08
      610.588   4.5914936e-08
      618.783   4.5486918e-08
      627.089   4.5058899e-08
      635.506   4.4630881e-08
      644.036   4.4202863e-08
      652.681   4.3774844e-08
      661.442   4.3346826e-08
      670.320   4.2918808e-08
      679.318   4.2131906e-08
      688.436   4.1345003e-08
      697.676   4.0558100e-08
      707.041   3.9771197e-08
      716.531   3.8984295e-08
      726.149   3.8197392e-08
      735.896   3.7410489e-08
      745.773   3.6623586e-08
      755.784   3.5836684e-08
      765.928   3.5049781e-08
      776.209   3.4313073e-08
      786.628   3.3576365e-08
      797.187   3.2839630e-08
      807.887   3.2102922e-08
      818.731   3.1366214e-08
      829.721   3.0629506e-08
      840.857   2.9892798e-08
      852.144   2.9156090e-08
      863.582   2.8419382e-08
      875.174   2.7682674e-08
      886.921   2.7221336e-08
      898.825   2.6759999e-08
      910.890   2.6298662e-08
      923.117   2.5837325e-08
      935.507   2.5375988e-08
      948.064   2.4914651e-08
      960.790   2.4453314e-08
      973.686   2.3991977e-08
      986.755   2.3530640e-08
      1000.00   2.3069303e-08
