pressure (hPa)         ozone mixing ration (kg/kg)     
     0.207579   1.6396395e-06
     0.237186   1.8213940e-06
     0.271016   2.0063488e-06
     0.309671   2.1827994e-06
     0.353839   2.3894326e-06
     0.404308   2.6127083e-06
     0.461975   2.8522508e-06
     0.527867   3.1097737e-06
     0.603157   3.3927616e-06
     0.689185   3.7011400e-06
     0.787484   4.0411747e-06
     0.899804   4.4262976e-06
      1.02814   4.8533785e-06
      1.17479   5.3465959e-06
      1.34235   5.9045103e-06
      1.53381   6.5066191e-06
      1.75258   7.1590249e-06
      2.00255   7.9260731e-06
      2.28818   8.7630000e-06
      2.61454   9.6693636e-06
      2.98745   1.0706833e-05
      3.41356   1.1736200e-05
      3.90044   1.2729158e-05
      4.45676   1.3526361e-05
      5.09243   1.4166198e-05
      5.81877   1.4644040e-05
      6.64870   1.4761596e-05
      7.59701   1.4881569e-05
      8.68058   1.4825789e-05
      9.91870   1.4530169e-05
      10.0518   1.4485249e-05
      10.1868   1.4490203e-05
      10.3235   1.4487352e-05
      10.4621   1.4471998e-05
      10.6025   1.4459819e-05
      10.7448   1.4447176e-05
      10.8890   1.4399283e-05
      11.0352   1.4404815e-05
      11.1833   1.4391264e-05
      11.3334   1.4342237e-05
      11.4855   1.4263694e-05
      11.6397   1.4222555e-05
      11.7959   1.4222708e-05
      11.9543   1.4182122e-05
      12.1147   1.4209457e-05
      12.2773   1.4178633e-05
      12.4421   1.4172753e-05
      12.6091   1.4064146e-05
      12.7784   1.4009660e-05
      12.9499   1.3958982e-05
      13.1237   1.3905708e-05
      13.2999   1.3860186e-05
      13.4784   1.3819877e-05
      13.6593   1.3775076e-05
      13.8427   1.3753222e-05
      14.0285   1.3677089e-05
      14.2168   1.3601365e-05
      14.4076   1.3608679e-05
      14.6010   1.3545132e-05
      14.7970   1.3473020e-05
      14.9956   1.3372393e-05
      15.1969   1.3262861e-05
      15.4008   1.3114406e-05
      15.6076   1.3040617e-05
      15.8170   1.2884387e-05
      16.0294   1.2801772e-05
      16.2445   1.2723081e-05
      16.4626   1.2647939e-05
      16.6835   1.2470794e-05
      16.9075   1.2403636e-05
      17.1344   1.2248195e-05
      17.3644   1.2120538e-05
      17.5975   1.1951063e-05
      17.8337   1.1855336e-05
      18.0730   1.1721623e-05
      18.3156   1.1579187e-05
      18.5615   1.1491680e-05
      18.8106   1.1339286e-05
      19.0631   1.1248264e-05
      19.3190   1.1115711e-05
      19.5783   1.1006895e-05
      19.8411   1.0868155e-05
      20.1074   1.0770473e-05
      20.3773   1.0654174e-05
      20.6508   1.0472396e-05
      20.9280   1.0351158e-05
      21.2089   1.0218402e-05
      21.4936   1.0104499e-05
      21.7821   9.9666216e-06
      22.0745   9.8310884e-06
      22.3708   9.6906835e-06
      22.6710   9.5412004e-06
      22.9753   9.4427645e-06
      23.2837   9.3041907e-06
      23.5963   9.1858632e-06
      23.9130   9.0343093e-06
      24.2340   8.9391772e-06
      24.5592   8.7896709e-06
      24.8889   8.6397615e-06
      25.2230   8.5385985e-06
      25.5615   8.4089206e-06
      25.9046   8.2690652e-06
      26.2523   8.1600802e-06
      26.6047   8.0081565e-06
      26.9618   7.8971935e-06
      27.3237   7.7535634e-06
      27.6905   7.6200616e-06
      28.0621   7.4771341e-06
      28.4388   7.3744154e-06
      28.8205   7.2534111e-06
      29.2074   7.1310803e-06
      29.5994   7.0551295e-06
      29.9967   6.9363382e-06
      30.3994   6.7960417e-06
      30.8074   6.6824601e-06
      31.2209   6.5546914e-06
      31.6400   6.4115060e-06
      32.0647   6.3268427e-06
      32.4951   6.1846330e-06
      32.9312   6.1156277e-06
      33.3733   6.0010702e-06
      33.8212   5.9232900e-06
      34.2752   5.7671872e-06
      34.7352   5.6621445e-06
      35.2015   5.5341849e-06
      35.6740   5.3699049e-06
      36.1528   5.2734134e-06
      36.6381   5.1490352e-06
      37.1299   5.0453294e-06
      37.6283   4.9300751e-06
      38.1333   4.8134064e-06
      38.6452   4.7240252e-06
      39.1639   4.6260274e-06
      39.6896   4.5405080e-06
      40.2223   4.4465443e-06
      40.7622   4.3261170e-06
      41.3093   4.2116069e-06
      41.8638   4.0934730e-06
      42.4257   4.0104612e-06
      42.9952   3.9162229e-06
      43.5723   3.8226543e-06
      44.1572   3.7349773e-06
      44.7499   3.6269956e-06
      45.3505   3.5073759e-06
      45.9592   3.4047469e-06
      46.5761   3.3029250e-06
      47.2013   3.1945883e-06
      47.8349   3.1000117e-06
      48.4769   3.0138232e-06
      49.1276   2.8957868e-06
      49.7870   2.7861724e-06
      50.4553   2.7013508e-06
      51.1326   2.6087448e-06
      51.8189   2.5191197e-06
      52.5145   2.4298661e-06
      53.2193   2.3377242e-06
      53.9337   2.2435557e-06
      54.6576   2.1662232e-06
      55.3912   2.0893357e-06
      56.1347   2.0301392e-06
      56.8882   1.9744559e-06
      57.6518   1.9277974e-06
      58.4257   1.8553621e-06
      59.2099   1.7920256e-06
      60.0046   1.7333831e-06
      60.8101   1.6764816e-06
      61.6263   1.6141098e-06
      62.4535   1.5463934e-06
      63.2918   1.4743252e-06
      64.1413   1.4123263e-06
      65.0022   1.3510798e-06
      65.8747   1.2871369e-06
      66.7590   1.2281929e-06
      67.6550   1.1697121e-06
      68.5631   1.1049215e-06
      69.4834   1.0318691e-06
      70.4161   9.7851536e-07
      71.3613   9.2505408e-07
      72.3191   8.8131741e-07
      73.2898   8.3788427e-07
      74.2736   7.9516209e-07
      75.2705   7.5533832e-07
      76.2808   7.0649430e-07
      77.3047   6.5812025e-07
      78.3423   6.0785488e-07
      79.3939   5.6609243e-07
      80.4596   5.3371452e-07
      81.5396   5.0886285e-07
      82.6341   4.8267457e-07
      83.7432   4.5703777e-07
      84.8673   4.3084091e-07
      86.0064   4.0165262e-07
      87.1609   3.7621452e-07
      88.3308   3.5730431e-07
      89.5164   3.4113453e-07
      90.7180   3.2556809e-07
      91.9356   3.0550194e-07
      93.1696   2.8668754e-07
      94.4202   2.6737162e-07
      95.6876   2.5413495e-07
      96.9720   2.3976613e-07
      98.2736   2.3005479e-07
      99.5927   2.2042731e-07
      100.929   2.1044937e-07
      102.284   2.0151489e-07
      103.657   1.9400639e-07
      105.048   1.8372406e-07
      106.458   1.7271212e-07
      107.887   1.6102298e-07
      109.336   1.5214130e-07
      110.803   1.4564030e-07
      112.290   1.4010917e-07
      113.798   1.3483005e-07
      115.325   1.3001584e-07
      116.873   1.2523626e-07
      118.442   1.2126338e-07
      120.032   1.1725438e-07
      121.643   1.1359973e-07
      123.275   1.0934981e-07
      124.930   1.0635214e-07
      126.607   1.0361102e-07
      128.306   1.0207762e-07
      130.029   1.0174512e-07
      131.774   9.8968278e-08
      133.543   9.6284798e-08
      135.335   9.4885023e-08
      137.152   9.2885811e-08
      138.993   9.1721392e-08
      140.858   9.0357468e-08
      142.749   9.0010620e-08
      144.665   8.8352738e-08
      146.607   8.7058266e-08
      148.575   8.5622793e-08
      150.569   8.2292272e-08
      152.590   7.9828228e-08
      154.638   7.8069184e-08
      156.714   7.4739302e-08
      158.817   7.4293058e-08
      160.949   7.2894971e-08
      163.110   7.2490307e-08
      165.299   7.3043864e-08
      167.518   7.2150321e-08
      169.766   7.3031277e-08
      172.045   7.3096609e-08
      174.354   7.2227140e-08
      176.694   7.3002787e-08
      179.066   7.2913579e-08
      181.470   7.3551722e-08
      183.905   7.4099588e-08
      186.374   7.4912026e-08
      188.876   7.5120965e-08
      191.411   7.6068248e-08
      193.980   7.5544527e-08
      196.584   7.5306265e-08
      199.222   7.3708920e-08
      201.896   7.2219884e-08
      204.606   7.1599120e-08
      207.353   7.0034437e-08
      210.136   6.8114583e-08
      212.957   6.7890456e-08
      215.815   6.8421239e-08
      218.712   6.8478602e-08
      221.647   6.8105481e-08
      224.623   6.7721546e-08
      227.638   6.6899744e-08
      230.693   6.7633564e-08
      233.790   6.7510519e-08
      236.928   6.7043487e-08
      240.108   6.7072868e-08
      243.331   6.6551132e-08
      246.597   6.6811180e-08
      249.907   6.6654643e-08
      253.261   6.6486930e-08
      256.661   6.6602721e-08
      260.106   6.6409781e-08
      263.597   6.7326306e-08
      267.135   6.7431743e-08
      270.721   6.7301566e-08
      274.355   6.7603646e-08
      278.037   6.7947754e-08
      281.769   7.0030654e-08
      285.551   7.0973251e-08
      289.384   7.0494743e-08
      293.268   7.0934606e-08
      297.205   7.1909223e-08
      301.194   7.2095869e-08
      305.237   7.2876105e-08
      309.334   7.3656342e-08
      313.486   7.4436579e-08
      317.694   7.5216843e-08
      321.958   7.5997080e-08
      326.280   7.6777316e-08
      330.659   7.7557553e-08
      335.098   7.8337790e-08
      339.596   7.9118026e-08
      344.154   7.9898263e-08
      348.773   8.0394446e-08
      353.455   8.0890628e-08
      358.199   8.1386811e-08
      363.007   8.1882994e-08
      367.879   8.2379177e-08
      372.817   8.2875360e-08
      377.822   8.3371542e-08
      382.893   8.3867725e-08
      388.032   8.4363908e-08
      393.241   8.4860090e-08
      398.519   8.4955317e-08
      403.868   8.5050544e-08
      409.289   8.5145771e-08
      414.783   8.5240998e-08
      420.350   8.5336225e-08
      425.993   8.5431453e-08
      431.711   8.5526680e-08
      437.505   8.5621907e-08
      443.378   8.5717134e-08
      449.329   8.5812361e-08
      455.360   8.5267691e-08
      461.472   8.4723022e-08
      467.667   8.4178333e-08
      473.944   8.3633663e-08
      480.305   8.3088994e-08
      486.752   8.2544324e-08
      493.286   8.1999655e-08
      499.907   8.1454985e-08
      506.617   8.0910316e-08
      513.417   8.0365646e-08
      520.309   7.9820629e-08
      527.293   7.9275613e-08
      534.370   7.8730596e-08
      541.543   7.8185579e-08
      548.812   7.7640563e-08
      556.178   7.7095546e-08
      563.644   7.6550529e-08
      571.209   7.6005513e-08
      578.876   7.5460496e-08
      586.646   7.4915480e-08
      594.521   7.4116336e-08
      602.501   7.3317192e-08
      610.588   7.2518047e-08
      618.783   7.1718903e-08
      627.089   7.0919759e-08
      635.506   7.0120615e-08
      644.036   6.9321471e-08
      652.681   6.8522327e-08
      661.442   6.7723183e-08
      670.320   6.6924039e-08
      679.318   6.5331367e-08
      688.436   6.3738693e-08
      697.676   6.2146019e-08
      707.041   6.0553345e-08
      716.531   5.8960671e-08
      726.149   5.7367997e-08
      735.896   5.5775323e-08
      745.773   5.4182650e-08
      755.784   5.2589976e-08
      765.928   5.0997303e-08
      776.209   4.9800710e-08
      786.628   4.8604118e-08
      797.187   4.7407484e-08
      807.887   4.6210892e-08
      818.731   4.5014299e-08
      829.721   4.3817707e-08
      840.857   4.2621115e-08
      852.144   4.1424523e-08
      863.582   4.0227931e-08
      875.174   3.9031339e-08
      886.921   3.8605264e-08
      898.825   3.8179189e-08
      910.890   3.7753114e-08
      923.117   3.7327039e-08
      935.507   3.6900965e-08
      948.064   3.6474890e-08
      960.790   3.6048815e-08
      973.686   3.5622740e-08
      986.755   3.5196665e-08
      1000.00   3.4770590e-08
